-0.060
-0.065
-0.060
-0.075
-0.065
-0.070
-0.070
-0.090
-0.080
-0.095
-0.080
-0.095
-0.080
-0.095
-0.085
-0.090
-0.090
-0.100
-0.085
-0.105
-0.090
-0.045
0.005
0.015
0.045
0.155
0.140
0.045
0.005
-0.040
-0.085
-0.200
-0.195
-0.200
-0.200
-0.240
-0.130
0.340
1.155
1.470
-0.155
-0.825
-0.590
-0.350
-0.155
-0.170
-0.140
-0.155
-0.115
-0.125
-0.090
-0.095
-0.065
-0.055
-0.015
-0.005
0.035
0.045
0.090
0.110
0.150
0.180
0.205
0.225
0.230
0.220
0.235
0.230
0.200
0.170
0.120
0.075
0.040
0.020
0.005
-0.005
-0.005
-0.010
-0.015
-0.010
0.000
-0.005
-0.020
-0.020
-0.015
-0.025
-0.035
-0.045
-0.045
-0.060
-0.065
-0.070
-0.055
-0.060
-0.080
-0.075
-0.090
-0.065
-0.075
-0.080
-0.080
-0.085
-0.090
-0.075
-0.085
-0.095
-0.105
-0.090
-0.095
-0.070
-0.045
0.005
0.030
0.070
0.195
0.145
0.050
-0.015
-0.025
-0.115
-0.180
-0.190
-0.185
-0.185
-0.215
0.010
0.575
1.185
0.960
-0.160
-0.740
-0.640
-0.350
-0.175
-0.145
-0.150
-0.145
-0.105
-0.120
-0.090
-0.085
-0.070
-0.040
-0.020
0.005
0.020
0.045
0.080
0.115
0.140
0.165
0.210
0.190
0.220
0.210
0.215
0.215
0.160
0.135
0.100
0.050
0.035
-0.005
0.005
-0.005
-0.015
-0.020
-0.010
0.000
-0.020
-0.005
-0.040
-0.035
-0.050
-0.040
-0.055
-0.075
-0.050
-0.075
-0.090
-0.080
-0.090
-0.080
-0.075
-0.085
-0.085
-0.095
-0.095
-0.105
-0.080
-0.115
-0.100
-0.095
-0.100
-0.075
-0.005
0.010
0.055
0.185
0.145
0.075
-0.005
-0.025
-0.110
-0.175
-0.180
-0.220
-0.175
-0.240
-0.030
0.530
1.210
1.220
-0.105
-0.795
-0.690
-0.375
-0.165
-0.155
-0.135
-0.150
-0.120
-0.120
-0.090
-0.095
-0.050
-0.050
-0.010
-0.005
0.030
0.080
0.075
0.145
0.155
0.200
0.200
0.240
0.235
0.245
0.245
0.215
0.180
0.150
0.090
0.035
0.025
0.000
-0.015
-0.030
0.000
-0.020
-0.005
-0.025
-0.030
-0.015
-0.010
-0.035
-0.040
-0.050
-0.045
-0.040
-0.075
-0.065
-0.095
-0.085
-0.085
-0.090
-0.100
-0.100
-0.080
-0.105
-0.105
-0.100
-0.105
-0.095
-0.100
-0.090
-0.035
0.010
0.035
0.070
0.190
0.125
0.045
-0.035
-0.060
-0.155
-0.210
-0.225
-0.200
-0.215
-0.265
0.070
0.865
1.495
0.625
-0.440
-0.815
-0.600
-0.310
-0.175
-0.180
-0.165
-0.135
-0.135
-0.115
-0.105
-0.085
-0.060
-0.030
-0.020
0.015
0.050
0.070
0.105
0.165
0.200
0.205
0.235
0.235
0.265
0.260
0.235
0.215
0.170
0.125
0.090
0.025
-0.015
-0.030
-0.035
-0.040
-0.040
-0.035
-0.040
-0.020
-0.040
-0.040
-0.030
-0.045
-0.065
-0.060
-0.060
-0.090
-0.080
-0.095
-0.085
-0.105
-0.090
-0.100
-0.105
-0.115
-0.100
-0.115
-0.110
-0.135
-0.095
-0.125
-0.105
-0.085
-0.015
0.020
0.030
0.135
0.160
0.105
0.030
-0.050
-0.050
-0.170
-0.205
-0.215
-0.175
-0.210
-0.215
0.175
1.090
1.700
0.335
-0.615
-0.705
-0.460
-0.175
-0.165
-0.145
-0.155
-0.115
-0.120
-0.105
-0.105
-0.085
-0.060
-0.015
-0.005
0.020
0.050
0.080
0.105
0.180
0.205
0.240
0.235
0.270
0.270
0.280
0.260
0.230
0.175
0.135
0.090
0.045
0.000
-0.005
-0.025
-0.025
-0.025
-0.020
0.000
-0.005
-0.005
-0.005
-0.005
-0.010
-0.025
-0.020
-0.040
-0.040
-0.040
-0.050
-0.060
-0.050
-0.065
-0.060
-0.070
-0.060
-0.090
-0.080
-0.095
-0.085
-0.100
-0.090
-0.095
-0.085
-0.100
-0.075
-0.095
-0.080
-0.075
0.000
0.030
0.035
0.135
0.145
0.070
0.015
-0.045
-0.055
-0.185
-0.190
-0.220
-0.180
-0.210
-0.185
0.220
1.150
1.720
0.155
-0.700
-0.660
-0.405
-0.150
-0.160
-0.135
-0.145
-0.120
-0.125
-0.090
-0.090
-0.055
-0.040
-0.015
0.000
0.030
0.050
0.095
0.110
0.165
0.190
0.230
0.245
0.255
0.255
0.265
0.255
0.230
0.185
0.145
0.100
0.060
0.025
0.025
0.010
0.010
0.010
0.015
0.010
0.025
0.020
0.020
0.020
0.015
0.000
0.000
-0.010
-0.015
-0.020
-0.030
-0.035
-0.035
-0.045
-0.040
-0.045
-0.045
-0.055
-0.045
-0.055
-0.045
-0.060
-0.050
-0.060
-0.055
-0.080
-0.065
-0.090
-0.075
-0.090
-0.070
-0.075
-0.065
-0.080
-0.065
-0.030
0.025
0.040
0.065
0.180
0.145
0.055
0.015
-0.035
-0.060
-0.175
-0.170
-0.195
-0.175
-0.220
-0.115
0.355
1.240
1.595
-0.115
-0.815
-0.565
-0.300
-0.130
-0.160
-0.130
-0.135
-0.110
-0.120
-0.090
-0.085
-0.055
-0.040
-0.005
0.000
0.040
0.050
0.095
0.125
0.170
0.190
0.220
0.230
0.245
0.250
0.260
0.240
0.220
0.175
0.135
0.085
0.055
0.020
0.015
0.010
0.010
0.000
0.000
0.000
0.010
0.005
0.020
0.010
0.000
-0.010
-0.015
-0.020
-0.020
-0.025
-0.035
-0.030
-0.045
-0.050
-0.050
-0.055
-0.065
-0.065
-0.060
-0.065
-0.070
-0.060
-0.060
-0.055
-0.060
-0.065
-0.080
-0.065
-0.080
-0.065
-0.075
-0.070
-0.085
-0.070
-0.085
-0.075
-0.085
-0.060
-0.045
0.020
0.040
0.055
0.180
0.155
0.060
0.020
-0.025
-0.055
-0.180
-0.160
-0.170
-0.165
-0.195
-0.100
0.350
1.115
1.495
-0.040
-0.730
-0.620
-0.365
-0.130
-0.150
-0.135
-0.150
-0.120
-0.130
-0.105
-0.090
-0.055
-0.060
-0.035
-0.015
0.020
0.045
0.065
0.095
0.145
0.180
0.215
0.200
0.225
0.235
0.245
0.235
0.225
0.175
0.130
0.090
0.050
0.035
0.015
0.005
0.000
-0.005
0.000
0.000
0.000
0.000
-0.005
-0.005
-0.020
-0.020
-0.040
-0.050
-0.060
-0.060
-0.060
-0.070
-0.065
-0.075
-0.070
-0.065
-0.075
-0.075
-0.075
-0.090
-0.075
-0.085
-0.080
-0.090
-0.075
-0.090
-0.080
-0.090
-0.080
-0.100
-0.085
-0.100
-0.075
-0.085
-0.090
-0.075
-0.015
0.025
0.055
0.155
0.160
0.095
0.015
-0.035
-0.050
-0.175
-0.170
-0.190
-0.175
-0.200
-0.105
0.335
1.095
1.470
0.065
-0.660
-0.690
-0.440
-0.185
-0.160
-0.135
-0.135
-0.115
-0.115
-0.110
-0.095
-0.055
-0.050
-0.015
-0.005
0.045
0.050
0.095
0.120
0.165
0.185
0.210
0.225
0.245
0.240
0.240
0.235
0.210
0.165
0.125
0.070
0.045
0.010
0.020
0.005
0.000
0.000
0.000
0.000
0.000
-0.005
-0.010
-0.005
-0.025
-0.005
-0.040
-0.040
-0.045
-0.045
-0.040
-0.055
-0.065
-0.050
-0.065
-0.065
-0.065
-0.065
-0.070
-0.065
-0.070
-0.065
-0.070
-0.070
-0.085
-0.060
-0.090
-0.065
-0.085
-0.080
-0.085
-0.050
-0.090
-0.075
-0.055
0.005
0.055
0.060
0.160
0.155
0.080
0.015
-0.020
-0.045
-0.170
-0.170
-0.175
-0.160
-0.200
-0.105
0.360
1.160
1.550
0.070
-0.690
-0.660
-0.410
-0.155
-0.155
-0.135
-0.135
-0.105
-0.110
-0.085
-0.090
-0.065
-0.045
-0.005
0.000
0.040
0.065
0.100
0.120
0.175
0.190
0.230
0.255
0.270
0.265
0.275
0.245
0.215
0.175
0.140
0.095
0.040
0.025
0.015
0.000
0.000
0.000
0.000
0.000
0.000
0.000
0.000
-0.005
-0.010
-0.010
-0.015
-0.030
-0.035
-0.045
-0.045
-0.050
-0.045
-0.065
-0.070
-0.075
-0.070
-0.090
-0.085
-0.090
-0.070
-0.085
-0.085
-0.095
-0.085
-0.090
-0.085
-0.090
-0.090
-0.100
-0.090
-0.105
-0.090
-0.100
-0.085
-0.055
0.000
0.035
0.050
0.170
0.135
0.060
0.010
-0.035
-0.075
-0.190
-0.185
-0.205
-0.180
-0.225
-0.110
0.380
1.215
1.545
-0.025
-0.765
-0.620
-0.370
-0.155
-0.170
-0.145
-0.160
-0.130
-0.145
-0.125
-0.120
-0.080
-0.065
-0.035
-0.020
0.010
0.035
0.080
0.105
0.155
0.180
0.220
0.225
0.240
0.235
0.245
0.225
0.200
0.155
0.115
0.075
0.050
0.020
0.000
-0.010
-0.015
-0.010
-0.010
-0.005
0.000
0.000
0.000
0.000
0.000
-0.005
-0.010
-0.020
-0.025
-0.035
-0.045
-0.055
-0.055
-0.060
-0.060
-0.060
-0.055
-0.055
-0.055
-0.065
-0.060
-0.055
-0.045
-0.055
-0.055
-0.055
-0.055
-0.075
-0.065
-0.080
-0.065
-0.080
-0.075
-0.090
-0.085
-0.105
-0.090
-0.110
-0.095
-0.110
-0.100
-0.085
-0.025
0.010
0.010
0.100
0.135
0.075
0.000
-0.050
-0.045
-0.175
-0.195
-0.205
-0.190
-0.205
-0.220
0.145
1.025
1.605
0.240
-0.625
-0.665
-0.425
-0.180
-0.185
-0.175
-0.175
-0.150
-0.150
-0.120
-0.120
-0.090
-0.080
-0.045
-0.025
0.000
0.020
0.060
0.080
0.130
0.160
0.185
0.195
0.210
0.210
0.220
0.215
0.195
0.170
0.135
0.085
0.045
0.015
-0.005
-0.015
-0.015
-0.015
-0.005
-0.005
0.000
0.000
0.015
0.010
0.000
0.000
0.000
-0.010
-0.015
-0.025
-0.030
-0.025
-0.040
-0.045
-0.040
-0.050
-0.055
-0.045
-0.030
-0.045
-0.050
-0.040
-0.045
-0.055
-0.055
-0.065
-0.065
-0.065
-0.070
-0.080
-0.065
-0.075
-0.075
-0.080
-0.070
-0.080
-0.080
-0.085
-0.065
-0.080
-0.080
-0.090
-0.090
-0.075
-0.025
0.035
0.045
0.115
0.165
0.125
0.040
-0.015
-0.005
-0.135
-0.170
-0.185
-0.165
-0.180
-0.200
0.135
0.890
1.440
0.425
-0.470
-0.670
-0.455
-0.200
-0.155
-0.130
-0.140
-0.125
-0.130
-0.105
-0.110
-0.080
-0.060
-0.045
-0.030
0.005
0.015
0.045
0.085
0.110
0.140
0.180
0.205
0.215
0.215
0.235
0.225
0.225
0.190
0.160
0.125
0.070
0.035
0.015
0.010
0.005
0.005
0.000
0.005
0.010
0.005
0.005
0.010
0.000
0.005
0.000
-0.010
-0.015
-0.020
-0.015
-0.025
-0.030
-0.030
-0.040
-0.035
-0.035
-0.040
-0.045
-0.045
-0.050
-0.045
-0.055
-0.055
-0.060
-0.060
-0.065
-0.055
-0.065
-0.065
-0.065
-0.060
-0.060
-0.060
-0.070
-0.060
-0.080
-0.075
-0.075
-0.075
-0.080
-0.070
-0.065
-0.010
0.030
0.050
0.100
0.200
0.145
0.055
-0.005
0.000
-0.120
-0.160
-0.170
-0.160
-0.175
-0.210
0.125
0.835
1.350
0.530
-0.335
-0.675
-0.540
-0.250
-0.145
-0.145
-0.135
-0.115
-0.115
-0.090
-0.090
-0.075
-0.060
-0.025
0.000
0.030
0.040
0.080
0.095
0.130
0.160
0.205
0.210
0.220
0.225
0.250
0.250
0.230
0.195
0.170
0.115
0.075
0.050
0.035
0.005
0.015
0.030
0.025
0.020
0.020
0.030
0.020
0.035
0.015
0.005
0.005
-0.005
-0.005
-0.020
-0.010
-0.015
-0.035
-0.030
-0.025
-0.025
-0.025
-0.040
-0.040
-0.035
-0.030
-0.030
-0.040
-0.030
-0.040
-0.030
-0.035
-0.035
-0.045
-0.045
-0.065
-0.055
-0.060
-0.060
-0.075
-0.050
-0.060
-0.060
-0.065
-0.070
-0.040
0.010
0.055
0.075
0.180
0.185
0.100
0.025
-0.025
-0.055
-0.175
-0.165
-0.180
-0.170
-0.220
-0.100
0.365
1.095
1.450
0.065
-0.665
-0.670
-0.435
-0.185
-0.170
-0.150
-0.155
-0.130
-0.120
-0.095
-0.105
-0.070
-0.055
-0.025
-0.005
0.035
0.040
0.085
0.120
0.165
0.190
0.220
0.235
0.250
0.255
0.260
0.245
0.215
0.180
0.140
0.095
0.060
0.030
0.015
0.010
0.010
0.010
0.000
0.005
0.010
0.015
0.000
0.005
0.000
0.000
-0.020
-0.025
-0.015
-0.015
-0.015
-0.030
-0.040
-0.035
-0.045
-0.040
-0.040
-0.045
-0.050
-0.040
-0.050
-0.050
-0.050
-0.055
-0.060
-0.050
-0.065
-0.055
-0.075
-0.055
-0.075
-0.055
-0.075
-0.065
-0.070
-0.075
-0.100
-0.070
-0.045
0.010
0.050
0.065
0.170
0.155
0.085
0.035
-0.020
-0.030
-0.160
-0.165
-0.190
-0.165
-0.205
-0.120
0.310
1.150
1.590
0.070
-0.685
-0.615
-0.385
-0.160
-0.175
-0.140
-0.150
-0.135
-0.140
-0.120
-0.115
-0.085
-0.080
-0.045
-0.030
0.005
0.020
0.055
0.085
0.145
0.175
0.205
0.215
0.235
0.240
0.245
0.235
0.215
0.180
0.145
0.095
0.055
0.015
0.010
-0.015
-0.010
-0.010
-0.010
-0.015
-0.005
0.000
0.000
-0.005
-0.015
-0.015
-0.020
-0.025
-0.040
-0.055
-0.050
-0.055
-0.050
-0.070
-0.070
-0.070
-0.080
-0.070
-0.075
-0.075
-0.080
-0.075
-0.085
-0.075
-0.075
-0.075
-0.080
-0.085
-0.090
-0.075
-0.080
-0.075
-0.100
-0.095
-0.080
-0.085
-0.075
-0.025
0.030
0.020
0.085
0.150
0.105
0.025
-0.040
-0.035
-0.150
-0.200
-0.210
-0.195
-0.195
-0.225
0.095
0.835
1.390
0.585
-0.350
-0.685
-0.505
-0.235
-0.160
-0.150
-0.150
-0.135
-0.140
-0.120
-0.100
-0.075
-0.060
-0.035
-0.015
0.010
0.035
0.070
0.100
0.140
0.170
0.210
0.230
0.250
0.260
0.260
0.260
0.235
0.200
0.155
0.115
0.070
0.035
0.010
0.010
0.000
0.000
-0.005
0.000
0.000
0.000
0.000
0.000
0.000
0.000
-0.010
-0.010
-0.015
-0.025
-0.030
-0.040
-0.045
-0.055
-0.055
-0.060
-0.060
-0.065
-0.065
-0.065
-0.060
-0.065
-0.065
-0.080
-0.075
-0.080
-0.070
-0.085
-0.070
-0.085
-0.070
-0.085
-0.070
-0.090
-0.080
-0.090
-0.075
-0.095
-0.080
-0.055
0.005
0.040
0.040
0.150
0.140
0.065
0.005
-0.045
-0.055
-0.190
-0.190
-0.210
-0.180
-0.205
-0.160
0.255
1.150
1.640
0.005
-0.720
-0.590
-0.365
-0.155
-0.180
-0.145
-0.155
-0.125
-0.130
-0.095
-0.095
-0.060
-0.055
-0.015
-0.005
0.025
0.045
0.085
0.115
0.165
0.205
0.245
0.250
0.260
0.255
0.250
0.250
0.230
0.185
0.145
0.105
0.060
0.025
0.005
0.000
-0.010
0.000
0.000
0.000
0.000
0.000
0.000
0.005
0.000
-0.005
-0.005
-0.010
-0.015
-0.020
-0.025
-0.035
-0.045
-0.035
-0.050
-0.050
-0.055
-0.055
-0.060
-0.055
-0.060
-0.065
-0.065
-0.060
-0.060
-0.050
-0.070
-0.060
-0.065
-0.055
-0.070
-0.060
-0.080
-0.065
-0.080
-0.080
-0.085
-0.075
-0.085
-0.075
-0.090
-0.080
-0.045
0.000
0.040
0.070
0.180
0.145
0.050
0.000
-0.035
-0.085
-0.185
-0.185
-0.190
-0.170
-0.225
-0.025
0.500
1.130
1.185
-0.070
-0.700
-0.620
-0.355
-0.150
-0.160
-0.140
-0.145
-0.120
-0.115
-0.095
-0.085
-0.075
-0.065
-0.030
-0.015
0.010
0.030
0.080
0.100
0.140
0.170
0.215
0.230
0.245
0.245
0.260
0.240
0.225
0.180
0.160
0.115
0.065
0.045
0.045
0.015
0.000
0.005
0.005
0.010
0.000
0.000
-0.005
-0.005
-0.010
-0.020
-0.030
-0.030
-0.025
-0.040
-0.030
-0.060
-0.050
-0.045
-0.045
-0.055
-0.060
-0.055
-0.065
-0.065
-0.060
-0.055
-0.060
-0.070
-0.055
-0.075
-0.060
-0.075
-0.075
-0.080
-0.080
-0.090
-0.080
-0.090
-0.070
-0.070
-0.020
0.025
0.045
0.100
0.185
0.130
0.040
-0.030
-0.020
-0.130
-0.155
-0.170
-0.165
-0.180
-0.200
0.145
0.845
1.350
0.575
-0.295
-0.665
-0.545
-0.275
-0.160
-0.150
-0.145
-0.135
-0.140
-0.125
-0.105
-0.085
-0.070
-0.055
-0.040
0.000
0.020
0.065
0.065
0.105
0.140
0.190
0.195
0.225
0.220
0.220
0.230
0.215
0.175
0.135
0.090
0.050
0.025
0.010
-0.005
-0.015
-0.010
0.000
0.000
0.000
0.000
0.000
0.000
-0.005
0.000
-0.025
-0.025
-0.025
-0.025
-0.030
-0.050
-0.035
-0.050
-0.045
-0.055
-0.050
-0.055
-0.055
-0.080
-0.050
-0.065
-0.050
-0.080
-0.075
-0.075
-0.075
-0.085
-0.060
-0.080
-0.085
-0.075
-0.020
0.020
0.045
0.125
0.165
0.115
0.020
-0.045
-0.040
-0.165
-0.185
-0.210
-0.180
-0.205
-0.210
0.160
0.950
1.475
0.375
-0.450
-0.700
-0.525
-0.250
-0.170
-0.165
-0.165
-0.135
-0.135
-0.110
-0.115
-0.085
-0.080
-0.045
-0.035
0.010
0.020
0.040
0.090
0.130
0.170
0.205
0.210
0.250
0.235
0.250
0.225
0.225
0.170
0.125
0.100
0.035
0.010
-0.015
-0.020
-0.035
-0.025
-0.030
-0.030
-0.030
-0.035
-0.045
-0.040
-0.035
-0.040
-0.055
-0.050
-0.040
-0.070
-0.060
-0.065
-0.060
-0.095
-0.095
-0.100
-0.065
-0.095
-0.115
-0.090
-0.085
-0.120
-0.080
-0.125
-0.115
-0.105
-0.085
-0.065
0.010
0.040
0.060
0.195
0.155
0.075
0.000
-0.035
-0.090
-0.185
-0.180
-0.190
-0.170
-0.235
-0.080
0.445
1.180
1.415
0.040
-0.710
-0.675
-0.410
-0.165
-0.175
-0.140
-0.130
-0.110
-0.120
-0.100
-0.085
-0.055
-0.045
-0.015
-0.005
0.025
0.055
0.100
0.130
0.175
0.185
0.235
0.250
0.265
0.265
0.270
0.255
0.215
0.170
0.110
0.060
0.040
0.000
-0.010
-0.025
-0.020
-0.030
-0.040
-0.040
-0.030
-0.020
-0.030
-0.035
-0.035
-0.040
-0.055
-0.045
-0.065
-0.065
-0.075
-0.070
-0.080
-0.080
-0.090
-0.080
-0.090
-0.095
-0.100
-0.095
-0.100
-0.100
-0.110
-0.105
-0.110
-0.105
-0.090
-0.025
0.030
0.015
0.095
0.130
0.085
0.005
-0.050
-0.060
-0.175
-0.210
-0.210
-0.205
-0.210
-0.245
0.065
0.890
1.575
0.785
-0.380
-0.715
-0.475
-0.225
-0.180
-0.175
-0.165
-0.155
-0.145
-0.125
-0.115
-0.090
-0.075
-0.045
-0.020
0.000
0.035
0.070
0.110
0.150
0.190
0.230
0.260
0.270
0.275
0.280
0.270
0.240
0.195
0.145
0.095
0.055
0.025
0.000
-0.005
-0.010
-0.010
-0.005
-0.005
-0.005
0.000
0.000
0.000
0.000
-0.010
-0.015
-0.020
-0.025
-0.035
-0.040
-0.050
-0.055
-0.060
-0.065
-0.065
-0.065
-0.065
-0.075
-0.065
-0.075
-0.075
-0.075
-0.075
-0.080
-0.075
-0.085
-0.070
-0.080
-0.070
-0.080
-0.080
-0.090
-0.080
-0.090
-0.080
-0.095
-0.085
-0.060
-0.010
0.035
0.030
0.125
0.140
0.090
0.015
-0.030
-0.035
-0.160
-0.185
-0.185
-0.150
-0.185
-0.195
0.150
1.065
1.715
0.380
-0.620
-0.630
-0.390
-0.160
-0.165
-0.150
-0.160
-0.135
-0.135
-0.130
-0.110
-0.085
-0.070
-0.035
-0.025
0.000
0.030
0.085
0.095
0.150
0.175
0.225
0.240
0.255
0.275
0.275
0.265
0.260
0.210
0.175
0.110
0.070
0.040
0.025
0.000
-0.010
-0.005
-0.005
-0.020
-0.010
-0.020
-0.005
0.000
-0.030
-0.020
-0.025
-0.015
-0.040
-0.035
-0.045
-0.055
-0.045
-0.060
-0.060
-0.055
-0.070
-0.060
-0.070
-0.060
-0.085
-0.080
-0.070
-0.065
-0.080
-0.085
-0.080
-0.105
-0.090
-0.080
-0.085
-0.100
-0.090
-0.100
-0.080
-0.020
0.005
0.030
0.090
0.170
0.125
0.040
-0.035
-0.025
-0.155
-0.195
-0.200
-0.185
-0.195
-0.205
0.115
0.780
1.265
0.595
-0.285
-0.720
-0.615
-0.330
-0.180
-0.165
-0.150
-0.140
-0.140
-0.125
-0.115
-0.085
-0.055
-0.035
-0.025
0.005
0.010
0.060
0.080
0.100
0.145
0.170
0.210
0.230
0.230
0.250
0.235
0.220
0.195
0.165
0.125
0.070
0.040
0.025
0.005
-0.005
-0.010
0.000
0.005
0.000
0.000
-0.005
-0.010
-0.010
-0.030
-0.030
-0.020
-0.020
-0.050
-0.050
-0.065
-0.055
-0.065
-0.065
-0.070
-0.070
-0.080
-0.085
-0.085
-0.080
-0.075
-0.065
-0.090
-0.105
-0.070
-0.105
-0.075
-0.095
-0.070
-0.095
-0.085
-0.090
-0.070
-0.070
-0.005
0.020
0.045
0.135
0.200
0.115
0.030
-0.030
-0.035
-0.170
-0.175
-0.175
-0.170
-0.205
-0.165
0.265
1.075
1.570
0.210
-0.570
-0.710
-0.510
-0.240
-0.170
-0.155
-0.145
-0.135
-0.125
-0.105
-0.110
-0.055
-0.075
-0.015
-0.030
0.025
0.030
0.060
0.100
0.155
0.170
0.225
0.240
0.275
0.255
0.250
0.250
0.220
0.185
0.140
0.080
0.060
0.010
0.000
-0.010
-0.035
-0.015
-0.020
-0.020
-0.015
-0.005
0.000
-0.030
-0.015
-0.030
-0.040
-0.035
-0.050
-0.055
-0.060
-0.075
-0.080
-0.090
-0.070
-0.075
-0.080
-0.095
-0.085
-0.100
-0.090
-0.100
-0.100
-0.120
-0.135
-0.100
-0.015
0.010
0.035
0.120
0.170
0.085
-0.005
-0.060
-0.055
-0.195
-0.215
-0.220
-0.200
-0.250
-0.145
0.310
1.200
1.645
0.055
-0.750
-0.795
-0.505
-0.240
-0.210
-0.140
-0.170
-0.140
-0.165
-0.120
-0.115
-0.075
-0.075
-0.050
0.000
-0.020
0.045
0.065
0.115
0.165
0.190
0.245
0.255
0.250
0.260
0.285
0.265
0.185
0.170
0.095
0.055
0.030
-0.050
-0.025
-0.060
-0.045
-0.060
-0.070
-0.065
-0.050
-0.050
-0.055
-0.040
-0.045
-0.050
-0.050
-0.070
-0.095
-0.075
-0.080
-0.095
-0.085
-0.100
-0.095
-0.125
-0.100
-0.100
-0.090
-0.055
0.015
0.020
0.060
0.160
0.140
0.035
-0.025
-0.035
-0.125
-0.215
-0.210
-0.190
-0.205
-0.265
-0.005
0.745
1.480
1.130
-0.275
-0.855
-0.650
-0.355
-0.175
-0.175
-0.155
-0.150
-0.150
-0.135
-0.120
-0.075
-0.085
-0.055
-0.020
0.000
0.010
0.065
0.095
0.120
0.210
0.230
0.265
0.285
0.290
0.300
0.275
0.240
0.180
0.140
0.070
0.005
-0.010
-0.030
-0.065
-0.070
-0.070
-0.075
-0.080
-0.060
-0.060
-0.060
-0.055
-0.055
-0.055
-0.060
-0.070
-0.080
-0.080
-0.080
-0.110
-0.100
-0.110
-0.095
-0.110
-0.125
-0.135
-0.085
-0.060
0.005
0.015
0.045
0.145
0.135
0.030
-0.030
-0.065
-0.120
-0.225
-0.220
-0.225
-0.215
-0.255
-0.050
0.615
1.465
1.475
-0.185
-0.885
-0.615
-0.335
-0.170
-0.175
-0.160
-0.150
-0.140
-0.155
-0.130
-0.115
-0.060
-0.070
-0.040
-0.025
0.020
0.040
0.090
0.120
0.180
0.225
0.255
0.285
0.300
0.300
0.290
0.235
0.200
0.140
0.090
0.035
0.005
-0.025
-0.040
-0.050
-0.040
-0.045
-0.045
-0.040
-0.040
-0.045
-0.045
-0.050
-0.040
-0.065
-0.055
-0.065
-0.070
-0.080
-0.080
-0.095
-0.075
-0.090
-0.105
-0.115
-0.105
-0.125
-0.100
-0.115
-0.105
-0.070
-0.005
0.030
0.035
0.125
0.145
0.080
0.025
-0.050
-0.060
-0.190
-0.200
-0.210
-0.205
-0.225
-0.235
0.155
1.090
1.750
0.420
-0.575
-0.670
-0.420
-0.175
-0.175
-0.155
-0.165
-0.145
-0.155
-0.120
-0.125
-0.085
-0.080
-0.045
-0.040
0.000
0.025
0.065
0.090
0.150
0.180
0.225
0.240
0.265
0.275
0.280
0.260
0.235
0.180
0.125
0.070
0.030
0.000
-0.020
-0.030
-0.030
-0.035
-0.030
-0.030
-0.035
-0.025
-0.035
-0.035
-0.030
-0.040
-0.055
-0.060
-0.080
-0.075
-0.080
-0.080
-0.090
-0.090
-0.105
-0.100
-0.105
-0.100
-0.105
-0.100
-0.105
-0.100
-0.075
-0.005
0.040
0.005
0.115
0.135
0.100
0.005
-0.060
-0.070
-0.180
-0.215
-0.215
-0.200
-0.205
-0.245
0.060
0.890
1.580
0.700
-0.470
-0.685
-0.410
-0.190
-0.185
-0.175
-0.170
-0.150
-0.140
-0.130
-0.120
-0.095
-0.070
-0.045
-0.025
-0.005
0.025
0.050
0.085
0.135
0.180
0.210
0.240
0.270
0.260
0.270
0.270
0.240
0.190
0.140
0.095
0.055
0.015
-0.005
-0.005
-0.010
-0.010
-0.020
-0.015
-0.010
-0.020
-0.025
-0.020
-0.035
-0.030
-0.025
-0.055
-0.055
-0.055
-0.065
-0.070
-0.060
-0.075
-0.080
-0.095
-0.080
-0.095
-0.090
-0.090
-0.095
-0.100
-0.090
-0.110
-0.085
-0.060
-0.015
0.030
0.045
0.130
0.160
0.095
0.045
-0.035
-0.040
-0.175
-0.190
-0.195
-0.195
-0.200
-0.210
0.125
0.865
1.450
0.450
-0.480
-0.720
-0.535
-0.235
-0.180
-0.170
-0.160
-0.160
-0.145
-0.140
-0.125
-0.080
-0.085
-0.060
-0.040
0.005
0.020
0.045
0.085
0.135
0.155
0.195
0.215
0.230
0.270
0.265
0.260
0.235
0.175
0.160
0.090
0.050
0.020
0.010
-0.015
-0.025
-0.015
-0.020
-0.005
-0.030
-0.005
-0.015
-0.030
-0.020
-0.030
-0.010
-0.045
-0.065
-0.070
-0.075
-0.055
-0.070
-0.085
-0.065
-0.100
-0.060
-0.105
-0.080
-0.095
-0.095
-0.100
-0.090
-0.110
-0.085
-0.070
-0.005
0.025
0.055
0.140
0.155
0.090
0.020
-0.035
-0.075
-0.165
-0.195
-0.210
-0.205
-0.225
-0.170
0.220
1.055
1.545
0.190
-0.650
-0.765
-0.535
-0.235
-0.195
-0.135
-0.160
-0.135
-0.140
-0.120
-0.095
-0.080
-0.065
-0.035
-0.010
0.000
0.020
0.060
0.100
0.140
0.160
0.210
0.225
0.230
0.265
0.240
0.240
0.225
0.165
0.120
0.085
0.040
0.000
0.000
-0.025
-0.010
-0.025
-0.050
-0.010
-0.025
-0.030
-0.010
-0.040
-0.040
-0.040
-0.025
-0.065
-0.055
-0.075
-0.065
-0.085
-0.080
-0.070
-0.085
-0.100
-0.090
-0.090
-0.100
-0.110
-0.100
-0.090
-0.070
-0.045
0.000
0.035
0.060
0.185
0.160
0.065
0.030
-0.040
-0.110
-0.180
-0.195
-0.205
-0.185
-0.240
-0.050
0.580
1.330
1.290
-0.150
-0.840
-0.705
-0.395
-0.190
-0.175
-0.155
-0.185
-0.125
-0.145
-0.120
-0.090
-0.075
-0.050
-0.035
-0.010
0.025
0.030
0.105
0.115
0.165
0.200
0.235
0.260
0.265
0.265
0.285
0.240
0.200
0.160
0.110
0.070
0.015
-0.010
-0.015
-0.025
-0.040
-0.030
-0.020
-0.030
-0.025
-0.020
-0.030
-0.035
-0.030
-0.040
-0.050
-0.065
-0.055
-0.065
-0.065
-0.085
-0.080
-0.105
-0.085
-0.095
-0.085
-0.115
-0.100
-0.115
-0.090
-0.125
-0.105
-0.065
0.000
0.020
0.055
0.165
0.140
0.050
0.000
-0.045
-0.095
-0.195
-0.205
-0.225
-0.195
-0.230
-0.095
0.455
1.345
1.605
-0.075
-0.845
-0.635
-0.365
-0.160
-0.170
-0.150
-0.160
-0.135
-0.130
-0.105
-0.100
-0.070
-0.055
-0.030
-0.015
0.020
0.055
0.085
0.105
0.175
0.195
0.235
0.255
0.255
0.270
0.270
0.250
0.220
0.180
0.120
0.065
0.035
0.015
0.000
-0.015
-0.010
-0.020
-0.005
-0.005
-0.005
0.000
0.000
-0.005
-0.020
-0.020
-0.015
-0.030
-0.045
-0.050
-0.065
-0.075
-0.065
-0.070
-0.085
-0.080
-0.080
-0.085
-0.075
-0.080
-0.095
-0.090
-0.085
-0.075
-0.095
-0.095
-0.095
-0.095
-0.100
-0.110
-0.080
-0.025
0.025
0.020
0.095
0.155
0.110
0.015
-0.025
-0.035
-0.150
-0.190
-0.195
-0.195
-0.200
-0.235
0.065
0.870
1.575
0.800
-0.395
-0.740
-0.480
-0.220
-0.175
-0.165
-0.145
-0.135
-0.140
-0.120
-0.110
-0.080
-0.065
-0.050
-0.030
0.000
0.020
0.055
0.080
0.115
0.160
0.190
0.215
0.240
0.245
0.250
0.250
0.235
0.205
0.165
0.125
0.080
0.045
0.030
0.015
0.010
0.010
0.005
0.010
0.005
0.010
0.000
0.000
-0.005
-0.015
-0.015
-0.020
-0.030
-0.040
-0.040
-0.050
-0.050
-0.055
-0.055
-0.065
-0.065
-0.060
-0.060
-0.060
-0.070
-0.075
-0.065
-0.070
-0.065
-0.070
-0.070
-0.080
-0.075
-0.080
-0.070
-0.080
-0.075
-0.085
-0.075
-0.090
-0.075
-0.090
-0.075
-0.090
-0.075
-0.055
0.000
0.035
0.035
0.125
0.155
0.095
0.015
-0.030
-0.030
-0.155
-0.170
-0.185
-0.175
-0.195
-0.185
0.190
1.105
1.685
0.195
-0.650
-0.620
-0.385
-0.145
-0.155
-0.135
-0.145
-0.125
-0.135
-0.115
-0.110
-0.065
-0.055
-0.030
-0.020
0.015
0.040
0.080
0.095
0.130
0.150
0.190
0.210
0.215
0.220
0.235
0.230
0.225
0.195
0.170
0.130
0.090
0.055
0.040
0.020
0.010
0.010
0.005
0.015
0.010
0.010
0.000
0.000
0.000
0.000
-0.015
-0.020
-0.030
-0.035
-0.045
-0.045
-0.055
-0.040
-0.055
-0.050
-0.055
-0.040
-0.065
-0.060
-0.060
-0.050
-0.070
-0.065
-0.070
-0.055
-0.080
-0.065
-0.085
-0.060
-0.085
-0.075
-0.095
-0.065
-0.045
0.005
0.050
0.065
0.165
0.170
0.095
0.025
-0.040
-0.035
-0.170
-0.170
-0.200
-0.170
-0.195
-0.135
0.265
1.065
1.555
0.070
-0.695
-0.655
-0.415
-0.170
-0.160
-0.145
-0.145
-0.125
-0.140
-0.100
-0.110
-0.080
-0.065
-0.020
-0.015
0.015
0.025
0.065
0.105
0.125
0.160
0.180
0.200
0.230
0.205
0.230
0.215
0.205
0.165
0.150
0.090
0.060
0.030
0.015
0.015
0.000
0.000
0.000
-0.010
0.005
-0.005
0.000
-0.025
-0.025
-0.030
-0.040
-0.040
-0.045
-0.055
-0.055
-0.060
-0.055
-0.065
-0.070
-0.070
-0.080
-0.080
-0.075
-0.080
-0.085
-0.095
-0.080
-0.085
-0.100
-0.085
-0.090
-0.100
-0.100
-0.100
-0.025
0.015
0.020
0.080
0.185
0.120
0.055
-0.015
-0.025
-0.145
-0.170
-0.200
-0.195
-0.190
-0.235
0.060
0.730
1.305
0.725
-0.235
-0.720
-0.615
-0.330
-0.180
-0.155
-0.160
-0.135
-0.140
-0.110
-0.100
-0.080
-0.065
-0.040
-0.010
0.010
0.030
0.050
0.075
0.125
0.150
0.170
0.195
0.215
0.215
0.235
0.220
0.225
0.190
0.145
0.125
0.085
0.065
0.005
-0.005
0.000
0.010
0.005
-0.005
-0.030
-0.025
-0.010
-0.015
-0.015
-0.045
-0.040
-0.030
-0.045
-0.065
-0.075
-0.060
-0.060
-0.080
-0.075
-0.085
-0.065
-0.080
-0.090
-0.085
-0.065
-0.090
-0.085
-0.100
-0.090
-0.090
-0.090
-0.095
-0.030
0.040
0.035
0.085
0.200
0.145
0.050
-0.010
-0.025
-0.130
-0.150
-0.200
-0.190
-0.170
-0.215
0.065
0.830
1.440
0.705
-0.320
-0.775
-0.610
-0.325
-0.180
-0.145
-0.155
-0.130
-0.130
-0.120
-0.100
-0.075
-0.075
-0.035
-0.035
0.005
0.030
0.050
0.070
0.125
0.150
0.205
0.200
0.215
0.235
0.225
0.235
0.205
0.190
0.150
0.095
0.075
0.035
0.015
0.000
-0.015
-0.005
-0.015
-0.020
0.000
-0.015
-0.010
-0.020
-0.025
-0.035
-0.020
-0.040
-0.055
-0.055
-0.055
-0.060
-0.070
-0.065
-0.070
-0.065
-0.065
-0.085
-0.065
-0.075
-0.095
-0.095
-0.090
-0.085
-0.100
-0.085
-0.075
-0.025
0.020
0.030
0.085
0.195
0.145
0.045
-0.015
-0.040
-0.135
-0.200
-0.220
-0.200
-0.205
-0.260
0.040
0.775
1.440
0.905
-0.280
-0.790
-0.600
-0.315
-0.170
-0.165
-0.160
-0.140
-0.140
-0.135
-0.125
-0.090
-0.075
-0.040
-0.030
0.005
0.025
0.040
0.085
0.115
0.155
0.200
0.220
0.230
0.240
0.250
0.260
0.245
0.200
0.160
0.115
0.070
0.040
0.010
0.000
-0.005
-0.010
-0.015
0.000
0.000
-0.005
-0.015
-0.005
-0.015
-0.025
-0.035
-0.035
-0.045
-0.050
-0.060
-0.060
-0.075
-0.060
-0.080
-0.070
-0.075
-0.075
-0.095
-0.075
-0.090
-0.080
-0.095
-0.080
-0.095
-0.080
-0.100
-0.090
-0.065
0.000
0.040
0.045
0.160
0.150
0.070
0.020
-0.040
-0.065
-0.190
-0.185
-0.200
-0.190
-0.220
-0.155
0.295
1.220
1.710
0.065
-0.730
-0.630
-0.395
-0.150
-0.170
-0.155
-0.165
-0.140
-0.140
-0.110
-0.105
-0.075
-0.065
-0.030
-0.020
0.010
0.035
0.075
0.100
0.145
0.170
0.200
0.210
0.220
0.220
0.230
0.220
0.205
0.165
0.135
0.095
0.055
0.025
0.010
0.005
0.000
-0.005
0.000
0.005
0.005
0.000
0.000
-0.005
-0.015
-0.020
-0.030
-0.030
-0.040
-0.045
-0.055
-0.055
-0.060
-0.060
-0.065
-0.065
-0.075
-0.070
-0.080
-0.075
-0.085
-0.075
-0.085
-0.080
-0.090
-0.095
-0.105
-0.095
-0.105
-0.100
-0.070
-0.005
0.030
0.020
0.110
0.150
0.105
0.020
-0.035
-0.040
-0.160
-0.190
-0.200
-0.185
-0.190
-0.225
0.085
0.915
1.560
0.550
-0.500
-0.695
-0.440
-0.180
-0.170
-0.160
-0.155
-0.135
-0.135
-0.120
-0.110
-0.085
-0.065
-0.040
-0.020
0.005
0.025
0.060
0.085
0.120
0.155
0.180
0.195
0.205
0.195
0.210
0.210
0.200
0.175
0.155
0.110
0.075
0.050
0.025
0.010
0.010
0.000
0.000
0.010
0.005
0.000
0.000
-0.010
-0.020
-0.020
-0.025
-0.020
-0.035
-0.040
-0.045
-0.055
-0.060
-0.060
-0.065
-0.065
-0.075
-0.065
-0.080
-0.070
-0.075
-0.065
-0.075
-0.085
-0.085
-0.070
-0.085
-0.080
-0.095
-0.070
-0.095
-0.080
-0.055
0.000
0.030
0.050
0.150
0.165
0.115
0.035
-0.030
-0.045
-0.165
-0.165
-0.185
-0.175
-0.200
-0.180
0.175
0.960
1.480
0.235
-0.550
-0.675
-0.455
-0.190
-0.170
-0.145
-0.165
-0.125
-0.130
-0.100
-0.100
-0.080
-0.075
-0.040
-0.030
0.005
0.015
0.055
0.070
0.105
0.125
0.160
0.175
0.190
0.180
0.200
0.210
0.195
0.165
0.155
0.110
0.080
0.035
0.035
0.025
0.015
0.000
0.000
0.000
0.005
0.000
-0.005
-0.010
-0.020
-0.015
-0.035
-0.045
-0.045
-0.045
-0.040
-0.060
-0.075
-0.065
-0.060
-0.065
-0.070
-0.070
-0.080
-0.070
-0.070
-0.075
-0.090
-0.090
-0.075
-0.090
-0.080
-0.100
-0.085
-0.090
-0.075
-0.115
-0.090
-0.070
-0.020
0.015
0.025
0.130
0.170
0.095
0.015
-0.040
-0.055
-0.185
-0.185
-0.205
-0.175
-0.220
-0.165
0.245
1.005
1.455
0.175
-0.560
-0.705
-0.500
-0.230
-0.185
-0.155
-0.155
-0.135
-0.145
-0.110
-0.105
-0.075
-0.075
-0.035
-0.035
0.000
0.015
0.055
0.070
0.105
0.125
0.155
0.160
0.185
0.195
0.210
0.195
0.175
0.160
0.135
0.100
0.060
0.035
0.015
0.010
-0.005
-0.010
-0.005
0.000
0.000
-0.015
-0.015
-0.020
-0.035
-0.045
-0.050
-0.045
-0.060
-0.070
-0.080
-0.070
-0.075
-0.080
-0.085
-0.085
-0.090
-0.085
-0.085
-0.095
-0.100
-0.090
-0.100
-0.095
-0.105
-0.100
-0.100
-0.100
-0.110
-0.095
-0.055
0.010
0.020
0.055
0.170
0.120
0.040
-0.020
-0.040
-0.130
-0.200
-0.195
-0.200
-0.195
-0.245
0.000
0.645
1.300
0.990
-0.205
-0.735
-0.560
-0.300
-0.160
-0.160
-0.140
-0.140
-0.125
-0.115
-0.095
-0.085
-0.060
-0.045
-0.020
0.000
0.030
0.050
0.085
0.115
0.145
0.175
0.200
0.205
0.210
0.220
0.220
0.210
0.185
0.150
0.105
0.070
0.040
0.020
0.005
0.000
0.000
-0.005
0.000
-0.005
0.000
0.000
0.000
-0.010
-0.015
-0.025
-0.030
-0.035
-0.040
-0.050
-0.050
-0.055
-0.060
-0.070
-0.065
-0.075
-0.065
-0.070
-0.065
-0.080
-0.070
-0.080
-0.075
-0.085
-0.075
-0.085
-0.080
-0.085
-0.075
-0.095
-0.080
-0.095
-0.080
-0.095
-0.085
-0.105
-0.085
-0.070
-0.010
0.025
0.030
0.110
0.150
0.095
0.020
-0.035
-0.030
-0.165
-0.180
-0.190
-0.165
-0.200
-0.190
0.180
1.085
1.640
0.190
-0.640
-0.625
-0.390
-0.150
-0.160
-0.140
-0.150
-0.130
-0.135
-0.105
-0.115
-0.075
-0.070
-0.030
-0.015
0.015
0.030
0.060
0.085
0.125
0.150
0.185
0.195
0.210
0.205
0.210
0.205
0.200
0.170
0.145
0.110
0.080
0.050
0.025
0.015
0.010
0.010
0.015
0.010
0.015
0.015
0.015
0.005
0.000
0.000
-0.005
-0.015
-0.020
-0.030
-0.025
-0.035
-0.035
-0.040
-0.040
-0.045
-0.045
-0.055
-0.055
-0.060
-0.055
-0.060
-0.055
-0.065
-0.065
-0.065
-0.065
-0.070
-0.060
-0.075
-0.065
-0.075
-0.065
-0.075
-0.070
-0.080
-0.065
-0.080
-0.070
-0.080
-0.080
-0.065
-0.010
0.035
0.040
0.105
0.180
0.120
0.030
-0.025
-0.020
-0.145
-0.180
-0.190
-0.185
-0.190
-0.205
0.120
0.900
1.440
0.320
-0.530
-0.675
-0.455
-0.190
-0.170
-0.155
-0.155
-0.135
-0.145
-0.120
-0.110
-0.075
-0.065
-0.035
-0.030
0.010
0.025
0.060
0.075
0.110
0.145
0.170
0.185
0.195
0.200
0.215
0.200
0.205
0.190
0.160
0.110
0.080
0.055
0.030
0.015
0.010
-0.010
0.010
0.010
0.000
-0.005
0.000
0.000
0.000
-0.020
-0.030
-0.030
-0.035
-0.050
-0.040
-0.045
-0.060
-0.060
-0.050
-0.055
-0.050
-0.065
-0.055
-0.060
-0.060
-0.055
-0.070
-0.075
-0.065
-0.075
-0.075
-0.085
-0.070
-0.070
-0.070
-0.100
-0.055
-0.090
-0.075
-0.065
-0.025
0.025
0.050
0.120
0.210
0.125
0.045
-0.030
-0.025
-0.160
-0.170
-0.195
-0.160
-0.200
-0.170
0.215
0.915
1.395
0.320
-0.405
-0.700
-0.545
-0.245
-0.160
-0.125
-0.150
-0.110
-0.140
-0.095
-0.085
-0.055
-0.060
-0.015
-0.010
0.030
0.040
0.045
0.095
0.130
0.125
0.185
0.190
0.205
0.200
0.210
0.220
0.215
0.190
0.150
0.120
0.080
0.055
0.040
0.020
0.000
-0.010
0.000
0.005
-0.010
-0.010
-0.005
-0.005
-0.020
-0.025
-0.010
-0.045
-0.040
-0.040
-0.055
-0.070
-0.065
-0.075
-0.075
-0.070
-0.070
-0.075
-0.085
-0.075
-0.065
-0.085
-0.100
-0.080
-0.090
-0.085
-0.095
-0.100
-0.035
0.010
0.030
0.075
0.215
0.140
0.060
0.000
-0.035
-0.110
-0.180
-0.215
-0.180
-0.190
-0.240
0.040
0.715
1.285
0.810
-0.200
-0.755
-0.675
-0.360
-0.180
-0.160
-0.160
-0.145
-0.135
-0.115
-0.120
-0.100
-0.070
-0.055
-0.050
0.000
0.020
0.050
0.090
0.105
0.155
0.155
0.195
0.225
0.220
0.240
0.215
0.225
0.175
0.145
0.105
0.065
0.030
-0.015
-0.010
-0.015
-0.035
-0.005
-0.010
-0.025
-0.045
-0.020
-0.035
-0.050
-0.040
-0.055
-0.060
-0.075
-0.070
-0.085
-0.080
-0.090
-0.095
-0.090
-0.100
-0.085
-0.095
-0.090
-0.105
-0.105
-0.110
-0.120
-0.095
-0.055
0.005
0.020
0.055
0.170
0.145
0.045
-0.025
-0.040
-0.125
-0.195
-0.200
-0.210
-0.200
-0.250
0.025
0.720
1.365
0.965
-0.240
-0.765
-0.625
-0.340
-0.165
-0.160
-0.155
-0.145
-0.125
-0.130
-0.120
-0.085
-0.075
-0.055
-0.020
0.000
0.025
0.055
0.085
0.135
0.165
0.200
0.210
0.245
0.250
0.250
0.265
0.240
0.185
0.145
0.090
0.035
0.005
-0.010
-0.020
-0.025
-0.040
-0.045
-0.040
-0.035
-0.030
-0.025
-0.045
-0.045
-0.055
-0.055
-0.070
-0.070
-0.080
-0.070
-0.090
-0.100
-0.100
-0.095
-0.110
-0.100
-0.105
-0.095
-0.110
-0.115
-0.120
-0.105
-0.120
-0.090
-0.060
0.000
0.010
0.040
0.160
0.110
0.020
-0.005
-0.050
-0.100
-0.205
-0.205
-0.215
-0.195
-0.245
-0.090
0.470
1.330
1.515
-0.125
-0.810
-0.575
-0.325
-0.150
-0.170
-0.145
-0.150
-0.130
-0.135
-0.115
-0.105
-0.075
-0.055
-0.025
-0.015
0.020
0.040
0.075
0.105
0.155
0.180
0.215
0.235
0.250
0.250
0.255
0.220
0.205
0.160
0.110
0.075
0.020
-0.010
-0.020
-0.025
-0.025
-0.030
-0.030
-0.020
-0.025
-0.015
-0.005
-0.020
-0.030
-0.035
-0.020
-0.035
-0.040
-0.070
-0.065
-0.050
-0.060
-0.060
-0.060
-0.045
-0.075
-0.070
-0.070
-0.080
-0.085
-0.060
-0.090
-0.085
-0.090
-0.070
-0.100
-0.085
-0.075
-0.015
0.040
0.020
0.105
0.185
0.115
0.015
-0.040
-0.035
-0.160
-0.185
-0.190
-0.185
-0.195
-0.220
0.130
0.940
1.525
0.475
-0.465
-0.730
-0.530
-0.240
-0.160
-0.165
-0.140
-0.140
-0.140
-0.100
-0.110
-0.080
-0.065
-0.020
-0.020
0.005
0.030
0.060
0.080
0.125
0.160
0.205
0.220
0.225
0.230
0.260
0.250
0.245
0.200
0.165
0.115
0.085
0.045
0.010
0.015
-0.005
0.000
-0.015
-0.015
0.010
-0.015
-0.005
0.000
-0.025
-0.010
-0.040
-0.035
-0.045
-0.050
-0.050
-0.055
-0.075
-0.060
-0.070
-0.070
-0.080
-0.095
-0.080
-0.070
-0.085
-0.110
-0.085
-0.095
-0.100
-0.090
-0.095
-0.115
-0.100
-0.085
-0.050
0.020
0.030
0.065
0.190
0.130
0.055
-0.010
-0.020
-0.130
-0.185
-0.200
-0.190
-0.180
-0.230
0.055
0.750
1.375
0.880
-0.245
-0.765
-0.610
-0.335
-0.180
-0.155
-0.150
-0.145
-0.130
-0.110
-0.105
-0.085
-0.070
-0.050
-0.030
0.000
0.020
0.050
0.075
0.125
0.150
0.175
0.205
0.215
0.230
0.250
0.225
0.215
0.210
0.145
0.105
0.050
0.030
0.020
0.000
-0.010
0.000
-0.005
-0.020
-0.010
-0.005
-0.005
-0.020
-0.010
0.000
-0.020
-0.025
-0.040
-0.050
-0.045
-0.045
-0.055
-0.060
-0.065
-0.070
-0.065
-0.080
-0.065
-0.085
-0.080
-0.090
-0.075
-0.105
-0.090
-0.095
-0.095
-0.105
-0.085
-0.075
-0.005
0.030
0.025
0.120
0.155
0.100
0.025
-0.040
-0.050
-0.160
-0.185
-0.200
-0.170
-0.215
-0.230
0.160
1.050
1.665
0.345
-0.560
-0.680
-0.455
-0.190
-0.175
-0.140
-0.150
-0.120
-0.135
-0.105
-0.105
-0.070
-0.055
-0.020
-0.020
0.005
0.030
0.070
0.100
0.145
0.180
0.215
0.240
0.260
0.255
0.270
0.255
0.235
0.200
0.155
0.105
0.065
0.030
0.010
-0.005
-0.015
-0.020
-0.005
-0.010
0.000
0.000
-0.005
-0.005
0.000
-0.015
-0.025
-0.015
-0.025
-0.040
-0.040
-0.055
-0.060
-0.060
-0.065
-0.065
-0.075
-0.075
-0.080
-0.070
-0.065
-0.065
-0.060
-0.080
-0.080
-0.090
-0.080
-0.080
-0.070
-0.090
-0.080
-0.105
-0.085
-0.065
-0.015
0.035
0.050
0.115
0.185
0.105
0.030
-0.035
-0.025
-0.140
-0.190
-0.200
-0.165
-0.190
-0.220
0.140
0.990
1.600
0.440
-0.500
-0.680
-0.450
-0.190
-0.165
-0.145
-0.150
-0.120
-0.145
-0.100
-0.095
-0.090
-0.070
-0.040
-0.025
0.020
0.010
0.055
0.080
0.135
0.165
0.195
0.215
0.240
0.260
0.260
0.255
0.235
0.205
0.165
0.105
0.070
0.035
0.005
-0.015
-0.020
0.000
-0.020
-0.015
-0.020
-0.010
0.000
-0.035
-0.020
-0.010
-0.020
-0.040
-0.035
-0.040
-0.075
-0.055
-0.055
-0.075
-0.055
-0.070
-0.080
-0.080
-0.090
-0.095
-0.075
-0.085
-0.095
-0.085
-0.085
-0.085
-0.090
-0.085
-0.085
-0.090
-0.095
-0.070
-0.040
0.010
0.010
0.065
0.190
0.135
0.070
-0.010
-0.030
-0.120
-0.180
-0.200
-0.190
-0.185
-0.235
0.030
0.680
1.325
0.940
-0.215
-0.755
-0.610
-0.330
-0.165
-0.155
-0.160
-0.140
-0.125
-0.105
-0.105
-0.090
-0.070
-0.060
-0.030
0.005
0.035
0.060
0.075
0.120
0.150
0.195
0.210
0.230
0.245
0.250
0.245
0.245
0.200
0.150
0.110
0.070
0.030
0.005
-0.015
-0.025
-0.025
-0.010
-0.025
-0.025
-0.020
-0.020
-0.015
-0.025
-0.025
-0.050
-0.040
-0.050
-0.065
-0.055
-0.075
-0.070
-0.075
-0.085
-0.085
-0.085
-0.085
-0.080
-0.105
-0.085
-0.110
-0.090
-0.110
-0.105
-0.100
-0.090
-0.100
-0.090
-0.105
-0.090
-0.060
0.005
0.020
0.050
0.170
0.145
0.060
0.010
-0.045
-0.095
-0.200
-0.180
-0.215
-0.180
-0.235
-0.075
0.480
1.260
1.435
-0.050
-0.775
-0.650
-0.380
-0.165
-0.175
-0.135
-0.155
-0.135
-0.135
-0.115
-0.105
-0.075
-0.055
-0.030
-0.010
0.015
0.045
0.075
0.100
0.155
0.185
0.225
0.250
0.255
0.255
0.270
0.240
0.215
0.170
0.120
0.075
0.045
0.010
-0.005
-0.010
-0.010
-0.025
-0.020
-0.020
-0.015
-0.005
-0.015
-0.010
-0.025
-0.015
-0.015
-0.040
-0.055
-0.060
-0.055
-0.060
-0.075
-0.080
-0.080
-0.065
-0.065
-0.080
-0.075
-0.090
-0.085
-0.075
-0.070
-0.085
-0.075
-0.095
-0.095
-0.085
-0.085
-0.105
-0.090
-0.105
-0.095
-0.095
-0.020
0.025
0.010
0.065
0.160
0.110
0.025
-0.025
-0.030
-0.155
-0.190
-0.195
-0.200
-0.195
-0.250
0.070
0.880
1.500
0.700
-0.380
-0.750
-0.530
-0.270
-0.165
-0.155
-0.150
-0.135
-0.115
-0.110
-0.100
-0.085
-0.080
-0.050
-0.025
0.015
0.015
0.045
0.080
0.135
0.160
0.200
0.205
0.240
0.255
0.260
0.240
0.230
0.195
0.165
0.120
0.070
0.030
0.015
0.000
-0.010
-0.005
-0.025
-0.010
-0.005
0.010
-0.010
-0.015
0.005
-0.010
-0.025
-0.040
-0.030
-0.045
-0.055
-0.055
-0.060
-0.065
-0.050
-0.075
-0.080
-0.095
-0.080
-0.085
-0.075
-0.095
-0.080
-0.095
-0.105
-0.105
-0.095
-0.110
-0.090
-0.125
-0.085
-0.085
-0.025
0.025
0.030
0.115
0.165
0.085
0.020
-0.035
-0.055
-0.185
-0.170
-0.220
-0.190
-0.220
-0.150
0.280
1.135
1.645
0.150
-0.670
-0.730
-0.475
-0.205
-0.180
-0.150
-0.165
-0.130
-0.115
-0.090
-0.100
-0.060
-0.060
-0.015
-0.015
0.035
0.050
0.090
0.115
0.155
0.205
0.235
0.245
0.275
0.275
0.275
0.260
0.255
0.200
0.170
0.110
0.075
0.030
0.020
0.000
-0.005
0.000
-0.010
0.000
0.000
-0.005
0.000
-0.005
0.000
-0.020
-0.040
-0.025
-0.030
-0.055
-0.050
-0.050
-0.055
-0.060
-0.055
-0.085
-0.075
-0.080
-0.065
-0.090
-0.095
-0.095
-0.085
-0.100
-0.085
-0.100
-0.085
-0.115
-0.100
-0.115
-0.100
-0.085
-0.005
0.020
0.025
0.130
0.150
0.080
0.025
-0.040
-0.065
-0.190
-0.190
-0.215
-0.185
-0.235
-0.170
0.275
1.185
1.745
0.165
-0.700
-0.675
-0.445
-0.180
-0.170
-0.165
-0.170
-0.135
-0.140
-0.105
-0.095
-0.080
-0.080
-0.035
-0.025
0.025
0.025
0.065
0.115
0.155
0.170
0.235
0.245
0.270
0.270
0.280
0.275
0.245
0.200
0.160
0.105
0.065
0.045
0.000
-0.005
-0.015
-0.015
0.000
-0.015
-0.015
-0.015
-0.020
-0.015
-0.010
-0.015
-0.030
-0.025
-0.030
-0.045
-0.055
-0.055
-0.065
-0.070
-0.070
-0.075
-0.075
-0.065
-0.085
-0.070
-0.085
-0.080
-0.105
-0.100
-0.095
-0.075
-0.100
-0.095
-0.095
-0.085
-0.105
-0.095
-0.065
-0.015
0.020
0.025
0.135
0.145
0.085
0.025
-0.040
-0.060
-0.190
-0.190
-0.210
-0.165
-0.215
-0.165
0.265
1.170
1.730
0.155
-0.695
-0.670
-0.425
-0.175
-0.175
-0.155
-0.140
-0.125
-0.135
-0.100
-0.105
-0.075
-0.060
-0.015
-0.015
0.015
0.055
0.070
0.100
0.170
0.205
0.235
0.245
0.280
0.280
0.295
0.270
0.255
0.210
0.140
0.090
0.065
0.030
0.000
-0.010
-0.010
0.000
-0.015
-0.005
-0.025
-0.020
0.000
-0.010
0.000
-0.025
-0.050
-0.035
-0.035
-0.045
-0.055
-0.060
-0.070
-0.060
-0.075
-0.065
-0.075
-0.080
-0.075
-0.070
-0.080
-0.080
-0.085
-0.085
-0.100
-0.075
-0.090
-0.080
-0.110
-0.080
-0.085
-0.100
-0.085
-0.020
0.035
0.060
0.095
0.180
0.110
0.050
-0.010
-0.050
-0.170
-0.160
-0.190
-0.180
-0.200
-0.225
0.170
1.015
1.610
0.395
-0.505
-0.735
-0.520
-0.245
-0.180
-0.155
-0.170
-0.125
-0.145
-0.105
-0.105
-0.080
-0.075
-0.045
-0.035
0.000
0.020
0.060
0.070
0.130
0.160
0.205
0.240
0.255
0.235
0.250
0.255
0.245
0.215
0.155
0.115
0.060
0.035
0.010
-0.020
0.000
-0.025
-0.010
-0.005
-0.015
0.000
-0.005
0.000
-0.020
-0.030
-0.030
-0.035
-0.045
-0.060
-0.060
-0.060
-0.060
-0.080
-0.070
-0.080
-0.085
-0.065
-0.100
-0.115
-0.090
-0.095
-0.095
-0.090
-0.105
-0.090
-0.095
-0.100
-0.110
-0.090
-0.030
0.000
0.035
0.050
0.185
0.150
0.045
-0.020
-0.025
-0.115
-0.195
-0.190
-0.195
-0.190
-0.255
0.045
0.795
1.460
0.920
-0.260
-0.775
-0.605
-0.310
-0.170
-0.160
-0.155
-0.140
-0.135
-0.110
-0.120
-0.080
-0.075
-0.045
-0.025
0.000
0.025
0.060
0.090
0.125
0.165
0.210
0.230
0.245
0.275
0.270
0.255
0.235
0.210
0.145
0.110
0.065
0.020
0.000
-0.005
-0.030
-0.045
-0.035
-0.025
-0.015
-0.030
-0.020
-0.025
-0.025
-0.030
-0.040
-0.045
-0.050
-0.055
-0.060
-0.060
-0.060
-0.090
-0.095
-0.075
-0.090
-0.090
-0.090
-0.090
-0.085
-0.095
-0.110
-0.095
-0.115
-0.105
-0.105
-0.100
-0.095
-0.095
-0.040
0.010
0.010
0.065
0.170
0.110
0.020
-0.030
-0.050
-0.150
-0.215
-0.210
-0.210
-0.205
-0.260
0.015
0.750
1.475
1.040
-0.260
-0.770
-0.535
-0.260
-0.175
-0.175
-0.150
-0.145
-0.140
-0.135
-0.110
-0.090
-0.065
-0.045
-0.030
0.000
0.015
0.050
0.090
0.120
0.165
0.200
0.220
0.250
0.270
0.265
0.270
0.255
0.225
0.180
0.130
0.075
0.045
0.020
0.000
0.000
-0.005
-0.020
0.000
0.000
0.000
-0.005
0.000
-0.015
-0.010
-0.010
-0.030
-0.035
-0.045
-0.045
-0.045
-0.055
-0.065
-0.070
-0.085
-0.075
-0.080
-0.080
-0.085
-0.095
-0.080
-0.085
-0.090
-0.110
-0.070
-0.090
-0.095
-0.100
-0.095
-0.105
-0.070
-0.090
-0.085
-0.065
-0.030
0.050
0.025
0.105
0.175
0.110
0.025
-0.040
-0.035
-0.160
-0.175
-0.185
-0.170
-0.195
-0.230
0.130
0.995
1.620
0.470
-0.485
-0.715
-0.495
-0.210
-0.175
-0.150
-0.145
-0.125
-0.125
-0.115
-0.110
-0.080
-0.070
-0.025
-0.030
0.015
0.015
0.065
0.090
0.130
0.175
0.205
0.225
0.250
0.260
0.270
0.275
0.250
0.215
0.160
0.105
0.080
0.035
0.005
0.000
-0.010
-0.005
-0.010
-0.010
-0.015
-0.005
0.005
-0.005
-0.005
0.000
-0.015
-0.030
-0.025
-0.040
-0.025
-0.060
-0.050
-0.060
-0.050
-0.065
-0.070
-0.080
-0.075
-0.095
-0.075
-0.080
-0.075
-0.100
-0.075
-0.085
-0.085
-0.115
-0.080
-0.090
-0.110
-0.050
0.000
0.010
0.040
0.135
0.140
0.075
-0.005
-0.030
-0.075
-0.175
-0.185
-0.215
-0.180
-0.235
-0.135
0.325
1.180
1.595
0.050
-0.730
-0.705
-0.450
-0.185
-0.210
-0.155
-0.145
-0.125
-0.155
-0.105
-0.105
-0.080
-0.070
-0.010
-0.030
0.015
0.040
0.070
0.090
-0.020
-0.020
-0.025
-0.010
-0.010
-0.015
-0.010
-0.020
-0.025
-0.040
-0.035
-0.055
-0.040
-0.055
-0.055
-0.045
0.005
0.030
0.060
0.055
0.120
0.085
0.055
-0.010
-0.005
-0.090
-0.095
-0.110
-0.095
-0.115
-0.095
-0.120
-0.090
-0.080
0.200
0.535
-0.320
-0.355
-0.195
-0.090
-0.085
-0.105
-0.090
-0.095
-0.075
-0.095
-0.070
-0.085
-0.060
-0.065
-0.030
-0.025
0.000
0.010
0.035
0.055
0.110
0.130
0.175
0.210
0.240
0.255
0.285
0.295
0.290
0.230
0.200
0.115
0.055
0.010
-0.015
-0.030
-0.045
-0.040
-0.035
-0.020
-0.035
-0.020
-0.025
-0.020
-0.030
-0.020
-0.030
-0.030
-0.045
-0.035
-0.045
-0.045
-0.065
-0.055
-0.040
0.035
0.050
0.070
0.060
0.105
0.085
0.030
0.000
-0.035
-0.100
-0.110
-0.120
-0.090
-0.110
-0.105
-0.125
-0.085
-0.060
0.195
0.410
-0.455
-0.385
-0.200
-0.085
-0.085
-0.105
-0.095
-0.130
-0.095
-0.105
-0.075
-0.090
-0.055
-0.070
-0.045
-0.035
0.000
0.000
0.050
0.060
0.120
0.125
0.185
0.200
0.250
0.270
0.300
0.315
0.280
0.245
0.175
0.095
0.045
0.000
-0.040
-0.035
-0.045
-0.045
-0.055
-0.050
-0.040
-0.045
-0.020
-0.050
-0.030
-0.050
-0.040
-0.055
-0.060
-0.055
-0.045
-0.060
-0.065
-0.055
0.000
0.030
0.055
0.035
0.110
0.085
0.060
0.000
-0.030
-0.115
-0.125
-0.125
-0.105
-0.120
-0.105
-0.135
-0.120
-0.080
0.135
0.465
-0.235
-0.385
-0.265
-0.150
-0.125
-0.130
-0.100
-0.120
-0.100
-0.120
-0.080
-0.090
-0.065
-0.070
-0.040
-0.040
-0.005
0.005
0.025
0.055
0.080
0.110
0.180
0.190
0.245
0.260
0.285
0.300
0.290
0.255
0.220
0.115
0.055
0.010
-0.015
-0.055
-0.035
-0.040
-0.060
-0.045
-0.030
-0.035
-0.035
-0.030
-0.035
-0.040
-0.055
-0.055
-0.045
-0.050
-0.060
-0.050
-0.050
-0.050
-0.025
0.045
0.045
0.050
0.120
0.095
0.045
-0.010
-0.010
-0.100
-0.120
-0.110
-0.105
-0.110
-0.110
-0.125
-0.115
-0.070
0.160
0.515
-0.135
-0.370
-0.230
-0.120
-0.090
-0.100
-0.105
-0.105
-0.090
-0.105
-0.075
-0.090
-0.065
-0.070
-0.045
-0.040
0.000
0.000
0.040
0.055
0.090
0.110
0.160
0.195
0.225
0.260
0.280
0.280
0.300
0.265
0.205
0.130
0.070
0.010
-0.020
-0.045
-0.035
-0.030
-0.030
-0.035
-0.045
-0.040
-0.025
-0.020
-0.030
-0.030
-0.045
-0.045
-0.040
-0.050
-0.060
-0.055
-0.070
-0.070
-0.025
0.040
0.045
0.070
0.105
0.105
0.080
0.000
0.000
-0.060
-0.110
-0.100
-0.100
-0.110
-0.115
-0.110
-0.125
-0.085
0.055
0.325
0.000
-0.415
-0.280
-0.140
-0.085
-0.110
-0.105
-0.105
-0.100
-0.105
-0.100
-0.080
-0.075
-0.060
-0.050
-0.030
-0.010
0.000
0.025
0.060
0.090
0.120
0.160
0.205
0.235
0.250
0.295
0.300
0.300
0.280
0.210
0.140
0.070
0.015
-0.015
-0.025
-0.050
-0.055
-0.050
-0.035
-0.040
-0.045
-0.035
-0.035
-0.025
-0.035
-0.045
-0.025
-0.035
-0.050
-0.055
-0.050
-0.060
-0.055
-0.005
0.045
0.050
0.055
0.105
0.085
0.060
0.005
-0.020
-0.100
-0.115
-0.115
-0.115
-0.120
-0.120
-0.120
-0.125
-0.070
0.075
0.335
-0.015
-0.405
-0.275
-0.170
-0.100
-0.105
-0.105
-0.090
-0.110
-0.110
-0.080
-0.080
-0.075
-0.075
-0.045
-0.025
-0.010
0.000
0.025
0.065
0.080
0.105
0.165
0.200
0.235
0.265
0.275
0.310
0.315
0.270
0.220
0.125
0.080
0.005
-0.025
-0.025
-0.050
-0.040
-0.050
-0.050
-0.045
-0.040
-0.020
-0.035
-0.050
-0.040
-0.040
-0.045
-0.055
-0.055
-0.060
-0.070
-0.065
-0.065
0.000
0.040
0.040
0.050
0.115
0.075
0.055
-0.020
-0.015
-0.100
-0.115
-0.125
-0.105
-0.120
-0.115
-0.130
-0.105
-0.070
0.165
0.505
-0.165
-0.380
-0.245
-0.150
-0.110
-0.105
-0.105
-0.115
-0.075
-0.100
-0.090
-0.095
-0.055
-0.040
-0.050
-0.050
-0.010
0.015
0.055
0.045
0.105
0.135
0.165
0.200
0.255
0.295
0.295
0.310
0.310
0.260
0.220
0.135
0.055
0.035
-0.010
-0.005
-0.035
-0.035
-0.060
-0.025
-0.025
-0.045
-0.025
-0.040
-0.025
-0.040
-0.050
-0.040
-0.070
-0.065
-0.070
-0.065
-0.070
-0.065
-0.035
0.040
0.035
0.075
0.060
0.115
0.090
0.015
-0.010
-0.060
-0.125
-0.100
-0.120
-0.115
-0.125
-0.095
-0.130
-0.065
0.010
0.350
0.470
-0.390
-0.290
-0.145
-0.065
-0.090
-0.120
-0.090
-0.125
-0.090
-0.110
-0.070
-0.085
-0.050
-0.065
-0.025
-0.050
-0.005
0.020
0.055
0.065
0.105
0.150
0.190
0.225
0.255
0.275
0.310
0.320
0.300
0.255
0.175
0.105
0.045
0.000
-0.025
-0.025
-0.020
-0.025
-0.030
-0.030
-0.020
-0.030
-0.035
-0.030
-0.015
-0.030
-0.015
-0.040
-0.035
-0.045
-0.045
-0.055
-0.045
-0.030
0.045
0.050
0.080
0.075
0.115
0.090
0.020
0.000
-0.040
-0.095
-0.085
-0.115
-0.090
-0.115
-0.100
-0.115
-0.055
0.000
0.260
0.350
-0.445
-0.350
-0.150
-0.060
-0.080
-0.095
-0.090
-0.110
-0.075
-0.095
-0.060
-0.070
-0.060
-0.045
-0.025
-0.010
0.010
0.020
0.065
0.085
0.130
0.160
0.205
0.225
0.260
0.285
0.295
0.310
0.295
0.240
0.180
0.100
0.045
-0.005
-0.030
-0.045
-0.045
-0.040
-0.035
-0.035
-0.030
-0.040
-0.020
-0.030
-0.045
-0.040
-0.035
-0.040
-0.060
-0.060
-0.050
-0.060
-0.065
-0.055
0.000
0.045
0.045
0.045
0.110
0.090
0.060
-0.010
-0.020
-0.100
-0.120
-0.115
-0.110
-0.125
-0.110
-0.120
-0.080
-0.075
0.140
0.415
-0.275
-0.410
-0.225
-0.135
-0.100
-0.115
-0.110
-0.100
-0.090
-0.095
-0.080
-0.095
-0.065
-0.045
-0.040
-0.035
0.000
0.005
0.035
0.070
0.120
0.140
0.160
0.210
0.235
0.260
0.305
0.315
0.310
0.280
0.210
0.115
0.075
0.010
-0.025
-0.040
-0.045
-0.055
-0.030
-0.045
-0.040
-0.030
-0.030
-0.030
-0.040
-0.035
-0.015
-0.040
-0.040
-0.040
-0.045
-0.065
-0.050
-0.045
-0.010
0.045
0.060
0.065
0.115
0.100
0.060
0.005
-0.025
-0.080
-0.115
-0.105
-0.095
-0.145
-0.115
-0.110
-0.100
-0.065
0.155
0.500
-0.155
-0.360
-0.270
-0.165
-0.095
-0.095
-0.105
-0.110
-0.090
-0.120
-0.080
-0.080
-0.050
-0.075
-0.040
-0.045
0.000
-0.010
0.020
0.065
0.110
0.135
0.160
0.210
0.245
0.285
0.310
0.290
0.310
0.275
0.195
0.120
0.055
0.010
-0.020
-0.035
-0.065
-0.060
-0.055
-0.045
-0.050
-0.060
-0.025
-0.020
-0.045
-0.025
-0.035
-0.070
-0.035
-0.075
-0.050
-0.070
-0.055
-0.070
-0.065
-0.055
0.015
0.025
0.045
0.060
0.110
0.070
0.010
-0.020
-0.040
-0.105
-0.115
-0.135
-0.115
-0.145
-0.105
-0.125
-0.065
0.000
0.310
0.440
-0.400
-0.340
-0.170
-0.075
-0.100
-0.130
-0.105
-0.100
-0.100
-0.105
-0.075
-0.065
-0.040
-0.065
-0.045
-0.010
0.005
0.000
0.050
0.065
0.120
0.155
0.190
0.200
0.255
0.280
0.300
0.300
0.285
0.245
0.190
0.090
0.040
-0.005
-0.020
-0.030
-0.045
-0.050
-0.055
-0.045
-0.040
-0.030
-0.040
-0.030
-0.035
-0.035
-0.040
-0.045
-0.060
-0.045
-0.060
-0.060
-0.070
-0.055
-0.070
-0.010
0.025
0.055
0.060
0.130
0.080
0.035
-0.015
-0.030
-0.105
-0.110
-0.140
-0.110
-0.120
-0.100
-0.130
-0.105
-0.100
0.165
0.460
-0.420
-0.445
-0.230
-0.095
-0.095
-0.120
-0.115
-0.125
-0.100
-0.110
-0.095
-0.095
-0.070
-0.085
-0.060
-0.055
-0.015
0.000
0.030
0.050
0.095
0.125
0.175
0.195
0.230
0.250
0.290
0.295
0.300
0.260
0.195
0.115
0.055
0.000
-0.025
-0.040
-0.050
-0.055
-0.050
-0.065
-0.050
-0.035
-0.040
-0.025
-0.045
-0.040
-0.045
-0.020
-0.035
-0.035
-0.045
-0.045
-0.065
-0.055
-0.050
0.015
0.050
0.075
0.065
0.120
0.095
0.040
-0.015
-0.005
-0.090
-0.100
-0.130
-0.095
-0.115
-0.100
-0.120
-0.080
-0.080
0.180
0.490
-0.355
-0.395
-0.220
-0.135
-0.080
-0.105
-0.090
-0.095
-0.085
-0.105
-0.085
-0.075
-0.060
-0.055
-0.020
-0.015
0.005
-0.005
0.040
0.070
0.100
0.160
0.200
0.215
0.250
0.285
0.310
0.320
0.305
0.270
0.200
0.140
0.075
0.005
-0.015
-0.045
-0.020
-0.035
-0.035
-0.030
-0.030
-0.040
-0.025
-0.020
-0.035
-0.020
-0.035
-0.040
-0.040
-0.045
-0.045
-0.045
-0.060
-0.050
-0.035
0.005
0.040
0.050
0.045
0.125
0.090
0.060
-0.020
-0.015
-0.090
-0.095
-0.120
-0.120
-0.115
-0.095
-0.125
-0.095
-0.070
0.130
0.505
-0.145
-0.370
-0.260
-0.170
-0.085
-0.105
-0.095
-0.105
-0.095
-0.085
-0.100
-0.065
-0.045
-0.065
-0.035
-0.040
0.000
0.030
0.045
0.055
0.095
0.120
0.175
0.220
0.240
0.260
0.280
0.310
0.310
0.290
0.215
0.145
0.080
0.035
-0.010
-0.025
-0.035
-0.070
-0.035
-0.040
-0.030
-0.035
-0.025
-0.015
-0.020
-0.025
-0.045
-0.055
-0.035
-0.030
-0.040
-0.035
-0.050
-0.055
-0.055
-0.050
-0.070
0.000
0.050
0.065
0.060
0.125
0.100
0.065
0.005
0.000
-0.090
-0.100
-0.105
-0.085
-0.105
-0.110
-0.115
-0.100
-0.070
0.185
0.530
-0.175
-0.395
-0.230
-0.110
-0.065
-0.100
-0.110
-0.120
-0.085
-0.090
-0.075
-0.080
-0.055
-0.060
-0.040
-0.035
0.000
0.010
0.035
0.055
0.100
0.125
0.160
0.190
0.235
0.280
0.300
0.295
0.295
0.265
0.210
0.140
0.080
0.020
-0.010
-0.030
-0.030
-0.025
-0.035
-0.050
-0.035
-0.030
-0.030
-0.020
-0.030
-0.020
-0.040
-0.025
-0.050
-0.040
-0.070
-0.060
-0.050
-0.070
-0.070
-0.065
-0.065
-0.005
0.040
0.045
0.050
0.120
0.095
0.040
0.000
-0.005
-0.075
-0.110
-0.120
-0.100
-0.100
-0.100
-0.115
-0.105
-0.105
0.105
0.415
-0.220
-0.435
-0.255
-0.125
-0.100
-0.110
-0.100
-0.115
-0.100
-0.105
-0.085
-0.080
-0.050
-0.060
-0.055
-0.025
0.005
0.000
0.025
0.065
0.095
0.145
0.185
0.205
0.245
0.275
0.295
0.305
0.325
0.285
0.215
0.140
0.080
0.025
-0.010
-0.040
-0.040
-0.025
-0.045
-0.040
-0.025
-0.030
-0.030
-0.030
-0.035
-0.025
-0.035
-0.035
-0.055
-0.050
-0.050
-0.055
-0.065
-0.055
-0.055
-0.050
-0.040
0.025
0.025
0.075
0.070
0.135
0.085
0.030
-0.005
-0.025
-0.100
-0.100
-0.125
-0.080
-0.105
-0.090
-0.125
-0.070
-0.060
0.175
0.505
-0.355
-0.365
-0.235
-0.130
-0.100
-0.115
-0.090
-0.110
-0.100
-0.095
-0.070
-0.070
-0.060
-0.060
-0.020
-0.030
0.010
0.025
0.055
0.060
0.115
0.145
0.200
0.220
0.275
0.285
0.310
0.310
0.320
0.275
0.225
0.150
0.060
0.035
0.000
-0.015
-0.035
-0.030
-0.035
-0.020
-0.040
-0.015
-0.030
-0.035
-0.010
0.000
-0.020
-0.035
-0.040
-0.035
-0.030
-0.045
-0.045
-0.055
-0.070
-0.060
-0.020
0.055
0.040
0.055
0.090
0.110
0.075
0.010
-0.005
-0.060
-0.120
-0.090
-0.115
-0.115
-0.125
-0.105
-0.120
-0.060
0.055
0.375
0.340
-0.370
-0.295
-0.200
-0.095
-0.105
-0.110
-0.090
-0.110
-0.095
-0.105
-0.085
-0.080
-0.065
-0.045
-0.035
-0.025
0.000
0.005
0.040
0.070
0.120
0.135
0.195
0.230
0.255
0.265
0.295
0.305
0.300
0.245
0.175
0.110
0.040
0.000
-0.010
-0.030
-0.025
-0.025
-0.040
-0.040
-0.025
-0.035
-0.030
-0.020
-0.035
-0.040
-0.030
-0.040
-0.020
-0.040
-0.045
-0.045
-0.050
-0.050
-0.045
-0.055
-0.005
0.035
0.070
0.085
0.120
0.095
0.060
0.000
-0.005
-0.075
-0.100
-0.125
-0.105
-0.115
-0.090
-0.115
-0.110
-0.095
0.190
0.520
-0.250
-0.405
-0.220
-0.105
-0.090
-0.115
-0.100
-0.120
-0.095
-0.090
-0.085
-0.085
-0.065
-0.060
-0.045
-0.030
-0.015
0.000
0.020
0.045
0.090
0.115
0.175
0.195
0.240
0.255
0.275
0.275
0.305
0.270
0.200
0.130
0.080
0.030
-0.005
-0.025
-0.045
-0.045
-0.035
-0.040
-0.020
-0.025
-0.035
-0.015
-0.030
-0.025
-0.045
-0.025
-0.040
-0.040
-0.045
-0.040
-0.070
-0.050
-0.060
-0.055
-0.035
0.030
0.040
0.075
0.080
0.110
0.080
0.015
-0.020
-0.045
-0.105
-0.100
-0.120
-0.105
-0.125
-0.095
-0.130
-0.090
-0.050
0.215
0.360
-0.475
-0.385
-0.190
-0.085
-0.100
-0.125
-0.090
-0.105
-0.105
-0.105
-0.080
-0.080
-0.060
-0.065
-0.035
-0.035
0.000
0.010
0.045
0.055
0.130
0.145
0.205
0.205
0.240
0.280
0.305
0.325
0.305
0.250
0.190
0.105
0.030
0.015
-0.010
-0.020
-0.040
-0.040
-0.045
-0.025
-0.040
-0.025
-0.035
0.000
-0.010
-0.020
-0.025
-0.025
-0.030
-0.025
-0.045
-0.030
-0.040
-0.045
-0.010
0.065
0.050
0.080
0.115
0.135
0.110
0.030
0.015
-0.030
-0.105
-0.080
-0.095
-0.085
-0.105
-0.075
-0.110
-0.030
0.010
0.285
0.345
-0.395
-0.320
-0.190
-0.075
-0.080
-0.105
-0.065
-0.095
-0.085
-0.070
-0.055
-0.065
-0.035
-0.035
-0.010
-0.010
0.000
0.030
0.055
0.090
0.135
0.160
0.195
0.240
0.280
0.290
0.320
0.330
0.310
0.255
0.185
0.115
0.060
0.005
-0.010
-0.035
-0.015
-0.015
-0.030
-0.035
-0.020
-0.005
-0.010
0.000
-0.025
-0.010
-0.035
-0.025
-0.020
-0.030
-0.025
-0.045
-0.050
-0.030
-0.025
0.050
0.045
0.085
0.080
0.125
0.105
0.020
-0.010
-0.025
-0.110
-0.090
-0.105
-0.080
-0.115
-0.095
-0.115
-0.050
0.015
0.335
0.500
-0.365
-0.315
-0.150
-0.060
-0.075
-0.090
-0.090
-0.100
-0.075
-0.100
-0.055
-0.065
-0.050
-0.050
-0.025
-0.025
0.010
0.025
0.065
0.070
0.120
0.135
0.180
0.225
0.260
0.280
0.290
0.295
0.300
0.245
0.175
0.090
0.040
0.000
-0.005
-0.025
-0.035
-0.035
-0.050
-0.020
-0.040
-0.030
-0.025
-0.015
-0.030
-0.035
-0.030
-0.035
-0.030
-0.045
-0.045
-0.055
-0.065
-0.060
-0.020
0.055
0.060
0.070
0.120
0.100
0.075
0.005
0.015
-0.075
-0.100
-0.125
-0.110
-0.095
-0.100
-0.120
-0.105
-0.080
0.120
0.415
-0.105
-0.425
-0.275
-0.115
-0.080
-0.100
-0.105
-0.105
-0.100
-0.095
-0.090
-0.080
-0.065
-0.075
-0.050
-0.040
-0.015
0.000
0.025
0.040
0.080
0.120
0.150
0.180
0.220
0.250
0.260
0.280
0.295
0.260
0.205
0.130
0.060
0.005
-0.025
-0.035
-0.040
-0.045
-0.055
-0.040
-0.045
-0.040
-0.045
-0.040
-0.050
-0.025
-0.040
-0.035
-0.050
-0.060
-0.060
-0.040
-0.080
-0.065
-0.035
0.040
0.035
0.080
0.085
0.110
0.080
0.010
0.000
-0.050
-0.105
-0.105
-0.130
-0.100
-0.120
-0.115
-0.145
-0.045
0.020
0.230
0.305
-0.445
-0.350
-0.190
-0.090
-0.110
-0.120
-0.090
-0.120
-0.085
-0.090
-0.080
-0.085
-0.045
-0.040
-0.015
-0.045
0.000
0.005
0.065
0.085
0.105
0.140
0.180
0.220
0.270
0.295
0.290
0.290
0.300
0.250
0.180
0.085
0.025
-0.005
-0.035
-0.050
-0.050
-0.030
-0.075
-0.065
-0.015
-0.035
-0.055
-0.030
-0.040
-0.035
-0.060
-0.035
-0.075
-0.055
-0.060
-0.070
-0.045
0.005
0.045
0.045
0.055
0.110
0.085
0.070
-0.035
-0.010
-0.100
-0.110
-0.125
-0.095
-0.130
-0.115
-0.135
-0.075
-0.035
0.215
0.570
-0.325
-0.325
-0.185
-0.120
-0.115
-0.130
-0.095
-0.120
-0.085
-0.105
-0.085
-0.100
-0.070
-0.065
-0.040
-0.070
-0.025
-0.010
0.025
0.050
0.075
0.105
0.180
0.185
0.230
0.255
0.270
0.290
0.280
0.255
0.175
0.095
0.050
0.005
-0.015
-0.045
-0.045
-0.055
-0.045
-0.060
-0.030
-0.045
-0.035
-0.035
-0.050
-0.020
-0.055
-0.040
-0.040
-0.075
-0.050
-0.065
-0.070
-0.035
0.020
0.035
0.080
0.075
0.120
0.085
0.015
-0.025
-0.045
-0.105
-0.105
-0.115
-0.105
-0.130
-0.115
-0.120
-0.070
0.050
0.355
0.365
-0.450
-0.330
-0.140
-0.080
-0.085
-0.120
-0.110
-0.120
-0.095
-0.110
-0.085
-0.080
-0.065
-0.070
-0.035
-0.035
-0.005
0.010
0.050
0.060
0.095
0.125
0.175
0.200
0.245
0.260
0.280
0.290
0.270
0.215
0.155
0.080
0.025
-0.005
-0.010
-0.025
-0.050
-0.040
-0.040
-0.035
-0.045
-0.040
-0.050
-0.025
-0.045
-0.020
-0.040
-0.050
-0.060
-0.045
-0.070
-0.060
-0.045
0.030
0.050
0.065
0.075
0.115
0.085
0.035
-0.010
-0.015
-0.105
-0.105
-0.125
-0.095
-0.120
-0.100
-0.135
-0.090
-0.050
0.210
0.425
-0.480
-0.390
-0.190
-0.065
-0.090
-0.125
-0.095
-0.120
-0.095
-0.100
-0.085
-0.100
-0.075
-0.065
-0.030
-0.030
0.000
-0.005
0.020
0.050
0.095
0.120
0.165
0.195
0.240
0.250
0.265
0.255
0.265
0.235
0.165
0.085
0.035
0.000
-0.015
-0.025
-0.035
-0.035
-0.045
-0.045
-0.035
-0.035
-0.025
-0.020
-0.030
-0.035
-0.035
-0.045
-0.025
-0.030
-0.050
-0.025
-0.030
0.015
0.060
0.075
0.060
0.120
0.100
0.065
0.000
0.005
-0.075
-0.100
-0.115
-0.100
-0.105
-0.100
-0.105
-0.085
-0.045
0.170
0.445
-0.225
-0.410
-0.255
-0.140
-0.090
-0.085
-0.100
-0.095
-0.060
-0.090
-0.070
-0.060
-0.060
-0.045
-0.015
-0.020
0.000
0.020
0.045
0.050
0.100
0.130
0.185
0.200
0.235
0.255
0.280
0.315
0.300
0.260
0.215
0.125
0.080
0.030
0.000
-0.040
-0.045
-0.040
-0.030
-0.005
-0.045
-0.035
-0.035
-0.020
-0.020
0.000
-0.060
-0.035
-0.045
-0.045
-0.065
-0.020
-0.015
0.000
0.040
0.065
0.060
0.145
0.085
0.035
-0.005
0.000
-0.085
-0.100
-0.135
-0.100
-0.115
-0.115
-0.125
-0.070
-0.045
0.255
0.585
-0.345
-0.335
-0.190
-0.100
-0.095
-0.115
-0.080
-0.120
-0.115
-0.105
-0.065
-0.080
-0.055
-0.090
-0.045
-0.020
0.000
0.000
0.045
0.050
0.110
0.130
0.180
0.215
0.250
0.250
0.270
0.285
0.275
0.250
0.170
0.095
0.045
0.000
-0.045
-0.050
-0.045
-0.030
-0.035
-0.045
-0.025
-0.030
-0.040
-0.035
-0.045
-0.025
-0.040
-0.060
-0.055
-0.045
-0.055
-0.065
-0.060
-0.015
0.040
0.060
0.055
0.115
0.090
0.065
0.000
0.010
-0.090
-0.110
-0.120
-0.100
-0.120
-0.110
-0.105
-0.100
-0.060
0.210
0.535
-0.175
-0.385
-0.225
-0.110
-0.090
-0.105
-0.105
-0.115
-0.090
-0.105
-0.095
-0.075
-0.060
-0.075
-0.040
-0.035
-0.015
0.000
0.025
0.050
0.085
0.110
0.165
0.180
0.230
0.250
0.260
0.285
0.270
0.235
0.175
0.125
0.075
0.015
-0.020
-0.030
-0.025
-0.025
-0.040
-0.035
-0.045
-0.035
-0.035
-0.025
-0.030
-0.025
-0.035
-0.030
-0.045
-0.060
-0.055
-0.055
-0.045
0.005
0.040
0.050
0.065
0.120
0.075
0.045
-0.020
-0.015
-0.090
-0.115
-0.125
-0.105
-0.145
-0.120
-0.135
-0.105
-0.085
0.165
0.465
-0.340
-0.405
-0.220
-0.105
-0.090
-0.125
-0.110
-0.125
-0.110
-0.125
-0.090
-0.095
-0.070
-0.070
-0.050
-0.040
-0.015
-0.005
0.015
0.040
0.085
0.115
0.165
0.190
0.215
0.230
0.265
0.275
0.275
0.235
0.165
0.090
0.040
-0.010
-0.035
-0.050
-0.055
-0.045
-0.055
-0.055
-0.050
-0.060
-0.055
-0.050
-0.035
-0.045
-0.050
-0.065
-0.050
-0.055
-0.055
-0.060
-0.070
-0.045
0.010
0.025
0.055
0.065
0.125
0.075
0.030
-0.025
-0.025
-0.095
-0.100
-0.140
-0.100
-0.125
-0.105
-0.130
-0.090
-0.080
0.165
0.480
-0.380
-0.365
-0.210
-0.100
-0.100
-0.130
-0.095
-0.095
-0.070
-0.105
-0.075
-0.085
-0.060
-0.055
-0.035
-0.020
-0.010
0.005
0.045
0.050
0.115
0.125
0.185
0.200
0.235
0.250
0.290
0.290
0.265
0.235
0.180
0.105
0.040
-0.005
-0.025
-0.040
-0.045
-0.050
-0.020
-0.045
-0.050
-0.045
0.000
-0.025
-0.035
-0.045
-0.025
-0.045
-0.065
-0.060
-0.055
-0.090
-0.065
-0.040
0.015
0.020
0.055
0.070
0.120
0.085
0.030
-0.035
-0.065
-0.120
-0.125
-0.130
-0.120
-0.125
-0.105
-0.145
-0.070
-0.020
0.225
0.425
-0.390
-0.320
-0.205
-0.100
-0.105
-0.105
-0.090
-0.135
-0.090
-0.105
-0.075
-0.085
-0.065
-0.060
-0.020
-0.035
-0.010
0.020
0.050
0.065
0.110
0.115
0.170
0.210
0.230
0.250
0.285
0.280
0.260
0.210
0.155
0.070
0.030
0.000
-0.030
-0.035
-0.045
-0.055
-0.050
-0.045
-0.040
-0.035
-0.035
-0.030
-0.025
-0.040
-0.050
-0.050
-0.055
-0.055
-0.060
-0.065
-0.065
-0.050
-0.060
0.000
0.035
0.055
0.065
0.115
0.090
0.060
0.015
0.000
-0.075
-0.115
-0.110
-0.105
-0.120
-0.105
-0.105
-0.100
-0.090
0.130
0.430
-0.160
-0.370
-0.235
-0.120
-0.085
-0.110
-0.100
-0.105
-0.090
-0.100
-0.085
-0.075
-0.070
-0.070
-0.040
-0.030
-0.010
0.000
0.025
0.055
0.090
0.125
0.160
0.185
0.220
0.245
0.280
0.280
0.280
0.255
0.205
0.135
0.065
0.010
-0.005
-0.025
-0.030
-0.025
-0.025
-0.025
-0.035
-0.020
-0.025
-0.005
-0.010
-0.005
-0.005
-0.015
-0.035
-0.020
-0.035
-0.045
-0.045
-0.035
-0.050
-0.045
-0.040
0.035
0.050
0.080
0.075
0.140
0.095
0.040
-0.015
-0.020
-0.085
-0.085
-0.110
-0.085
-0.130
-0.105
-0.110
-0.080
-0.065
0.170
0.485
-0.350
-0.350
-0.200
-0.115
-0.090
-0.105
-0.100
-0.125
-0.080
-0.105
-0.090
-0.080
-0.055
-0.075
-0.035
-0.030
-0.020
0.000
0.035
0.070
0.105
0.115
0.160
0.200
0.235
0.260
0.280
0.275
0.290
0.245
0.180
0.110
0.060
0.010
-0.020
-0.035
-0.040
-0.055
-0.030
-0.035
-0.035
-0.035
-0.015
-0.030
-0.025
-0.020
-0.030
-0.050
-0.020
-0.030
-0.060
-0.040
-0.050
-0.070
-0.050
-0.065
-0.010
0.060
0.045
0.055
0.120
0.110
0.070
0.000
-0.025
-0.090
-0.100
-0.090
-0.095
-0.115
-0.115
-0.105
-0.100
-0.060
0.105
0.445
0.000
-0.375
-0.260
-0.160
-0.100
-0.090
-0.115
-0.125
-0.105
-0.085
-0.075
-0.090
-0.080
-0.045
-0.040
-0.040
-0.025
-0.010
0.020
0.035
0.070
0.120
0.145
0.175
0.205
0.225
0.250
0.265
0.275
0.255
0.215
0.135
0.075
0.030
-0.005
-0.025
-0.045
-0.040
-0.050
-0.040
-0.040
-0.035
-0.030
-0.025
-0.020
-0.025
-0.040
-0.035
-0.030
-0.025
-0.060
-0.060
-0.060
-0.065
-0.075
-0.060
-0.035
0.025
0.035
0.070
0.075
0.135
0.090
0.035
-0.010
-0.005
-0.090
-0.105
-0.130
-0.095
-0.120
-0.090
-0.120
-0.070
-0.025
0.265
0.505
-0.380
-0.345
-0.170
-0.055
-0.085
-0.120
-0.110
-0.110
-0.100
-0.100
-0.070
-0.085
-0.055
-0.065
-0.025
-0.040
-0.005
0.000
0.035
0.055
0.105
0.125
0.175
0.185
0.230
0.245
0.260
0.265
0.245
0.225
0.160
0.095
0.040
0.000
-0.020
-0.045
-0.045
-0.040
-0.035
-0.025
-0.025
-0.025
-0.030
-0.040
-0.035
-0.035
-0.030
-0.025
-0.045
-0.040
-0.050
-0.055
-0.070
-0.070
-0.075
-0.065
-0.030
0.030
0.035
0.065
0.110
0.100
0.075
0.000
-0.005
-0.075
-0.110
-0.105
-0.105
-0.115
-0.110
-0.100
-0.130
-0.080
0.050
0.285
0.015
-0.410
-0.280
-0.140
-0.075
-0.105
-0.105
-0.105
-0.110
-0.100
-0.095
-0.070
-0.070
-0.065
-0.050
-0.030
-0.015
0.005
0.010
0.055
0.070
0.125
0.150
0.180
0.210
0.235
0.265
0.290
0.280
0.265
0.215
0.145
0.090
0.030
-0.005
-0.035
-0.040
-0.030
-0.035
-0.040
-0.025
-0.035
-0.025
-0.010
-0.020
-0.025
-0.010
-0.040
-0.025
-0.030
-0.040
-0.050
-0.045
-0.055
-0.065
-0.040
0.040
0.045
0.095
0.075
0.120
0.105
0.040
0.000
-0.020
-0.105
-0.080
-0.100
-0.085
-0.120
-0.095
-0.120
-0.045
-0.030
0.190
0.440
-0.375
-0.315
-0.200
-0.110
-0.095
-0.105
-0.090
-0.105
-0.075
-0.100
-0.085
-0.075
-0.040
-0.030
-0.040
-0.025
0.015
0.020
0.065
0.055
0.110
0.140
0.200
0.235
0.235
0.245
0.300
0.295
0.290
0.250
0.180
0.085
0.060
0.010
-0.015
-0.030
-0.040
-0.025
-0.025
-0.030
-0.040
-0.010
-0.015
-0.020
-0.030
-0.030
-0.050
-0.025
-0.030
-0.055
-0.065
-0.045
-0.065
-0.055
-0.050
-0.010
0.035
0.065
0.050
0.120
0.085
0.050
-0.020
-0.010
-0.080
-0.115
-0.135
-0.100
-0.140
-0.100
-0.130
-0.075
-0.055
0.205
0.560
-0.290
-0.345
-0.220
-0.130
-0.095
-0.105
-0.105
-0.125
-0.085
-0.095
-0.070
-0.075
-0.055
-0.045
-0.025
-0.035
0.005
0.000
0.045
0.055
0.085
0.130
0.160
0.205
0.240
0.245
0.265
0.280
0.280
0.245
0.190
0.120
0.065
0.005
0.000
-0.020
-0.040
-0.040
-0.010
-0.020
-0.020
-0.020
-0.025
-0.020
-0.015
-0.020
-0.020
-0.035
-0.030
-0.045
-0.040
-0.050
-0.065
-0.065
-0.065
-0.030
0.040
0.055
0.070
0.110
0.105
0.080
0.010
0.010
-0.065
-0.100
-0.105
-0.115
-0.085
-0.110
-0.095
-0.110
-0.060
0.080
0.330
0.065
-0.375
-0.250
-0.115
-0.060
-0.090
-0.095
-0.095
-0.095
-0.090
-0.085
-0.085
-0.070
-0.055
-0.045
-0.020
-0.005
0.010
0.030
0.060
0.080
0.110
0.160
0.195
0.215
0.250
0.260
0.275
0.280
0.255
0.205
0.145
0.080
0.025
-0.005
-0.020
-0.030
-0.050
-0.045
-0.030
-0.035
-0.030
-0.025
-0.015
-0.020
-0.030
-0.040
-0.040
-0.035
-0.045
-0.050
-0.055
-0.055
-0.050
-0.045
-0.015
0.050
0.065
0.070
0.105
0.095
0.090
0.010
0.005
-0.065
-0.100
-0.100
-0.110
-0.110
-0.105
-0.095
-0.100
-0.065
0.065
0.300
-0.005
-0.395
-0.260
-0.140
-0.080
-0.090
-0.110
-0.100
-0.090
-0.080
-0.080
-0.075
-0.070
-0.055
-0.035
-0.025
0.000
0.010
0.040
0.060
0.090
0.120
0.155
0.215
0.225
0.260
0.265
0.295
0.290
0.265
0.225
0.150
0.085
0.015
-0.005
-0.025
-0.040
-0.025
-0.025
-0.035
-0.030
-0.035
-0.025
-0.025
-0.030
-0.020
-0.040
-0.030
-0.050
-0.045
-0.065
-0.035
-0.060
-0.055
-0.030
0.045
0.045
0.050
0.105
0.105
0.095
0.000
0.000
-0.080
-0.110
-0.105
-0.110
-0.130
-0.115
-0.095
-0.105
-0.055
0.085
0.350
0.065
-0.390
-0.275
-0.150
-0.120
-0.110
-0.110
-0.090
-0.090
-0.100
-0.090
-0.065
-0.080
-0.055
-0.045
-0.025
-0.015
0.010
0.020
0.045
0.095
0.110
0.145
0.190
0.230
0.235
0.265
0.280
0.280
0.280
0.205
0.150
0.070
0.005
-0.015
-0.025
-0.035
-0.035
-0.045
-0.035
-0.040
-0.025
-0.020
-0.025
-0.035
-0.035
-0.035
-0.035
-0.045
-0.040
-0.055
-0.040
-0.055
-0.050
-0.025
0.035
0.050
0.075
0.090
0.125
0.095
0.020
0.000
-0.025
-0.095
-0.095
-0.115
-0.100
-0.115
-0.100
-0.110
-0.060
0.020
0.290
0.355
-0.380
-0.310
-0.165
-0.075
-0.095
-0.105
-0.095
-0.110
-0.090
-0.100
-0.075
-0.075
-0.055
-0.065
-0.035
-0.030
0.005
0.015
0.060
0.080
0.110
0.145
0.190
0.205
0.240
0.250
0.270
0.275
0.265
0.210
0.150
0.080
0.030
-0.005
-0.030
-0.045
-0.035
-0.030
-0.020
-0.035
-0.035
-0.020
-0.015
-0.030
-0.025
-0.025
-0.025
-0.035
-0.040
-0.050
-0.045
-0.060
-0.060
-0.050
0.010
0.035
0.060
0.060
0.125
0.090
0.065
-0.005
-0.005
-0.085
-0.110
-0.120
-0.095
-0.110
-0.105
-0.125
-0.075
-0.075
0.175
0.440
-0.440
-0.425
-0.220
-0.090
-0.090
-0.120
-0.105
-0.120
-0.090
-0.100
-0.080
-0.085
-0.060
-0.065
-0.040
-0.030
-0.010
0.005
0.025
0.050
0.100
0.125
0.180
0.205
0.240
0.250
0.275
0.285
0.270
0.230
0.170
0.100
0.045
0.000
-0.020
-0.035
-0.050
-0.040
-0.055
-0.045
-0.045
-0.040
-0.035
-0.040
-0.040
-0.040
-0.050
-0.035
-0.040
-0.045
-0.065
-0.060
-0.075
-0.065
-0.050
0.030
0.035
0.060
0.070
0.115
0.085
0.015
-0.020
-0.055
-0.115
-0.100
-0.110
-0.100
-0.115
-0.110
-0.125
-0.055
-0.020
0.205
0.335
-0.450
-0.370
-0.205
-0.090
-0.100
-0.115
-0.090
-0.120
-0.100
-0.100
-0.065
-0.080
-0.040
-0.050
-0.030
-0.035
0.000
0.025
0.055
0.075
0.100
0.140
0.205
0.205
0.240
0.280
0.290
0.300
0.280
0.230
0.155
0.085
0.035
-0.015
-0.030
-0.040
-0.060
-0.060
-0.055
-0.040
-0.030
-0.040
-0.040
-0.050
-0.050
-0.045
-0.050
-0.045
-0.040
-0.060
-0.050
-0.080
-0.065
-0.055
-0.010
0.035
0.045
0.040
0.120
0.080
0.045
-0.015
-0.015
-0.100
-0.100
-0.135
-0.115
-0.115
-0.120
-0.110
-0.095
-0.080
0.095
0.445
-0.180
-0.375
-0.275
-0.185
-0.115
-0.125
-0.110
-0.120
-0.110
-0.100
-0.080
-0.090
-0.045
-0.065
-0.030
-0.045
-0.005
0.015
0.010
0.065
0.095
0.120
0.155
0.195
0.245
0.265
0.290
0.285
0.300
0.265
0.190
0.140
0.060
-0.010
-0.025
-0.030
-0.045
-0.065
-0.045
-0.025
-0.035
-0.045
-0.045
-0.030
-0.030
-0.030
-0.035
-0.035
-0.040
-0.050
-0.045
-0.045
-0.050
-0.060
-0.055
-0.015
0.045
0.050
0.055
0.115
0.095
0.065
0.000
-0.005
-0.070
-0.105
-0.115
-0.105
-0.110
-0.115
-0.115
-0.105
-0.065
0.130
0.470
-0.055
-0.365
-0.250
-0.140
-0.085
-0.095
-0.100
-0.100
-0.080
-0.080
-0.085
-0.070
-0.055
-0.065
-0.045
-0.025
-0.010
0.005
0.040
0.060
0.100
0.120
0.165
0.195
0.240
0.255
0.275
0.280
0.295
0.260
0.195
0.125
0.060
0.010
-0.025
-0.040
-0.045
-0.045
-0.050
-0.040
-0.045
-0.030
-0.025
-0.025
-0.025
-0.030
-0.035
-0.025
-0.025
-0.035
-0.050
-0.040
-0.050
-0.050
-0.060
-0.070
-0.040
0.040
0.035
0.065
0.075
0.110
0.090
0.025
-0.005
-0.030
-0.115
-0.100
-0.110
-0.085
-0.105
-0.085
-0.115
-0.050
-0.025
0.210
0.310
-0.485
-0.375
-0.170
-0.060
-0.085
-0.110
-0.075
-0.090
-0.075
-0.085
-0.070
-0.070
-0.050
-0.045
-0.025
-0.015
0.005
0.020
0.055
0.065
0.120
0.155
0.195
0.225
0.265
0.285
0.300
0.300
0.290
0.245
0.170
0.105
0.045
0.000
-0.025
-0.040
-0.045
-0.050
-0.040
-0.040
-0.035
-0.030
-0.035
-0.030
-0.035
-0.030
-0.040
-0.035
-0.040
-0.050
-0.060
-0.060
-0.065
-0.050
-0.070
-0.065
-0.040
0.030
0.020
0.055
0.060
0.090
0.075
0.000
-0.025
-0.065
-0.125
-0.095
-0.125
-0.105
-0.140
-0.100
-0.120
-0.075
-0.040
0.195
0.320
-0.465
-0.380
-0.215
-0.115
-0.110
-0.105
-0.110
-0.125
-0.100
-0.115
-0.075
-0.080
-0.065
-0.060
-0.025
-0.030
0.010
0.000
0.050
0.070
0.115
0.140
0.195
0.235
0.275
0.275
0.300
0.300
0.305
0.250
0.185
0.090
0.035
0.015
-0.015
-0.035
-0.050
-0.035
-0.030
-0.035
-0.045
-0.025
-0.030
-0.025
0.000
-0.030
-0.020
-0.020
-0.035
-0.040
-0.020
-0.040
-0.040
-0.045
-0.045
-0.050
0.005
0.065
0.065
0.065
0.135
0.110
0.075
0.015
-0.010
-0.070
-0.085
-0.120
-0.090
-0.095
-0.080
-0.110
-0.085
-0.070
0.100
0.465
-0.135
-0.370
-0.270
-0.195
-0.120
-0.105
-0.095
-0.105
-0.085
-0.100
-0.090
-0.075
-0.060
-0.065
-0.040
-0.020
0.000
0.000
0.025
0.065
0.095
0.130
0.170
0.210
0.255
0.265
0.310
0.310
0.335
0.295
0.220
0.145
0.080
0.025
0.000
-0.015
-0.060
-0.045
-0.045
-0.035
-0.040
-0.010
-0.015
-0.020
-0.015
-0.010
-0.030
-0.025
-0.035
-0.020
-0.045
-0.035
-0.040
-0.040
-0.055
-0.050
-0.050
0.010
0.045
0.060
0.055
0.130
0.100
0.055
-0.005
0.000
-0.100
-0.105
-0.105
-0.105
-0.135
-0.085
-0.110
-0.100
-0.090
0.150
0.525
-0.255
-0.385
-0.240
-0.135
-0.100
-0.110
-0.105
-0.115
-0.090
-0.105
-0.085
-0.085
-0.065
-0.065
-0.040
-0.045
-0.005
0.000
0.020
0.055
0.105
0.110
0.170
0.205
0.240
0.270
0.270
0.280
0.295
0.255
0.195
0.125
0.060
0.010
-0.015
-0.050
-0.045
-0.045
-0.045
-0.040
-0.045
-0.045
-0.025
-0.025
-0.025
-0.035
-0.030
-0.030
-0.030
-0.040
-0.050
-0.045
-0.050
-0.045
-0.060
-0.060
-0.055
-0.050
0.010
0.040
0.055
0.065
0.130
0.095
0.050
0.000
0.000
-0.080
-0.100
-0.110
-0.095
-0.110
-0.095
-0.110
-0.100
-0.100
0.140
0.450
-0.310
-0.435
-0.270
-0.135
-0.070
-0.105
-0.090
-0.105
-0.085
-0.100
-0.075
-0.065
-0.065
-0.050
-0.030
-0.025
0.000
0.000
0.045
0.060
0.105
0.120
0.180
0.215
0.250
0.270
0.285
0.310
0.310
0.280
0.225
0.150
0.070
0.015
-0.005
-0.025
-0.040
-0.050
-0.040
-0.045
-0.040
-0.030
-0.025
-0.020
-0.025
-0.020
-0.010
-0.020
-0.035
-0.020
-0.040
-0.040
-0.035
-0.035
-0.055
-0.040
-0.060
-0.045
-0.015
0.040
0.055
0.080
0.100
0.110
0.075
0.015
-0.005
-0.050
-0.115
-0.085
-0.100
-0.090
-0.095
-0.085
-0.105
-0.065
0.005
0.285
0.260
-0.435
-0.340
-0.200
-0.100
-0.075
-0.100
-0.085
-0.095
-0.065
-0.090
-0.055
-0.065
-0.045
-0.040
-0.025
-0.005
0.015
0.005
0.055
0.085
0.135
0.145
0.180
0.220
0.270
0.290
0.315
0.320
0.300
0.245
0.175
0.115
0.050
0.005
-0.035
-0.055
-0.030
-0.030
-0.040
-0.045
-0.050
-0.030
-0.030
-0.020
-0.015
-0.015
-0.035
-0.040
-0.035
-0.040
-0.060
-0.035
-0.065
-0.060
-0.070
-0.065
-0.045
0.055
0.025
0.050
0.075
0.135
0.090
0.000
-0.015
-0.045
-0.110
-0.100
-0.110
-0.085
-0.115
-0.095
-0.110
-0.055
0.010
0.305
0.405
-0.415
-0.320
-0.210
-0.110
-0.095
-0.110
-0.080
-0.130
-0.085
-0.080
-0.070
-0.070
-0.070
-0.050
-0.015
-0.035
0.000
0.010
0.065
0.075
0.115
0.140
0.175
0.220
0.280
0.300
0.320
0.340
0.305
0.265
0.205
0.130
0.045
0.005
0.005
-0.035
-0.045
-0.035
-0.050
-0.035
-0.025
-0.025
-0.015
-0.020
-0.020
-0.010
-0.020
-0.030
-0.030
-0.040
-0.045
-0.025
-0.040
-0.050
-0.050
-0.055
-0.040
0.050
0.050
0.085
0.070
0.125
0.110
0.045
0.000
-0.015
-0.095
-0.090
-0.085
-0.090
-0.100
-0.080
-0.115
-0.065
-0.035
0.285
0.525
-0.410
-0.345
-0.165
-0.075
-0.070
-0.105
-0.090
-0.095
-0.075
-0.095
-0.055
-0.070
-0.040
-0.060
-0.030
-0.035
0.000
0.005
0.060
0.065
0.110
0.130
0.175
0.215
0.260
0.275
0.295
0.300
0.295
0.255
0.190
0.115
0.045
0.010
-0.010
-0.020
-0.035
-0.040
-0.045
-0.040
-0.045
-0.020
-0.025
-0.020
-0.020
-0.020
-0.020
-0.025
-0.040
-0.045
-0.055
-0.045
-0.050
-0.050
-0.055
-0.050
-0.050
0.005
0.045
0.050
0.055
0.125
0.090
0.050
0.000
0.000
-0.100
-0.095
-0.115
-0.095
-0.115
-0.090
-0.115
-0.100
-0.100
0.145
0.440
-0.385
-0.465
-0.275
-0.130
-0.085
-0.105
-0.100
-0.110
-0.085
-0.100
-0.085
-0.090
-0.055
-0.065
-0.050
-0.035
0.000
0.000
0.030
0.050
0.090
0.115
0.180
0.210
0.235
0.265
0.305
0.315
0.300
0.275
0.220
0.140
0.065
0.030
-0.020
-0.035
-0.035
-0.035
-0.055
-0.050
-0.050
-0.045
-0.025
-0.040
-0.025
-0.020
-0.020
-0.035
-0.035
-0.050
-0.030
-0.055
-0.060
-0.060
-0.045
-0.050
0.005
0.030
0.065
0.075
0.125
0.085
0.030
-0.025
-0.025
-0.115
-0.100
-0.115
-0.105
-0.135
-0.085
-0.120
-0.065
-0.075
0.165
0.515
-0.355
-0.400
-0.275
-0.140
-0.095
-0.100
-0.105
-0.125
-0.090
-0.085
-0.055
-0.065
-0.085
-0.060
-0.030
-0.030
-0.005
0.015
0.040
0.055
0.100
0.145
0.195
0.205
0.275
0.280
0.320
0.320
0.320
0.270
0.205
0.125
0.070
0.000
-0.010
-0.030
-0.035
-0.045
-0.030
-0.030
-0.035
-0.045
-0.040
-0.030
-0.015
-0.035
-0.050
-0.045
-0.025
-0.045
-0.065
-0.070
-0.050
-0.050
-0.075
-0.055
0.030
0.030
0.055
0.085
0.105
0.085
0.000
-0.010
-0.050
-0.110
-0.110
-0.120
-0.100
-0.105
-0.110
-0.140
-0.055
0.040
0.360
0.355
-0.385
-0.330
-0.190
-0.085
-0.080
-0.115
-0.110
-0.100
-0.085
-0.115
-0.080
-0.070
-0.045
-0.075
-0.035
-0.030
0.005
0.000
0.040
0.070
0.095
0.140
0.175
0.200
0.250
0.280
0.310
0.320
0.285
0.235
0.155
0.095
0.050
0.005
-0.015
-0.055
-0.060
-0.050
-0.045
-0.040
-0.010
-0.040
-0.035
-0.020
-0.050
-0.030
-0.035
-0.040
-0.055
-0.035
-0.050
-0.040
-0.065
-0.050
-0.060
0.015
0.055
0.080
0.070
0.130
0.090
0.055
0.000
-0.015
-0.100
-0.105
-0.120
-0.095
-0.105
-0.090
-0.110
-0.080
-0.050
0.240
0.550
-0.395
-0.410
-0.185
-0.065
-0.075
-0.095
-0.095
-0.105
-0.080
-0.090
-0.050
-0.070
-0.045
-0.055
-0.025
-0.025
-0.010
0.000
0.045
0.065
0.110
0.125
0.185
0.210
0.245
0.255
0.290
0.295
0.295
0.255
0.180
0.115
0.060
0.000
-0.020
-0.040
-0.040
-0.045
-0.050
-0.040
-0.050
-0.045
-0.040
-0.035
-0.040
-0.035
-0.040
-0.040
-0.045
-0.050
-0.060
-0.070
-0.075
-0.065
-0.075
-0.065
-0.045
0.030
0.015
0.060
0.075
0.090
0.070
0.010
-0.010
-0.055
-0.115
-0.105
-0.130
-0.115
-0.125
-0.105
-0.140
-0.075
-0.025
0.215
0.240
-0.495
-0.395
-0.200
-0.085
-0.100
-0.120
-0.095
-0.100
-0.090
-0.110
-0.060
-0.075
-0.060
-0.060
-0.040
-0.005
0.010
0.010
0.045
0.060
0.100
0.150
0.185
0.225
0.265
0.265
0.280
0.290
0.315
0.240
0.170
0.090
0.020
-0.010
-0.040
-0.050
-0.040
-0.045
-0.055
-0.055
-0.070
-0.055
-0.035
-0.015
-0.020
-0.055
-0.055
-0.035
-0.055
-0.025
-0.070
-0.060
-0.065
-0.075
-0.065
0.015
0.030
0.040
0.030
0.115
0.070
0.055
-0.035
-0.035
-0.110
-0.110
-0.125
-0.120
-0.125
-0.110
-0.120
-0.100
-0.080
0.135
0.505
-0.265
-0.400
-0.265
-0.180
-0.110
-0.085
-0.115
-0.105
-0.085
-0.100
-0.070
-0.090
-0.055
-0.060
-0.035
-0.020
-0.035
0.005
0.045
0.065
0.085
0.110
0.155
0.205
0.260
0.265
0.285
0.310
0.315
0.285
0.220
0.125
0.080
0.020
-0.020
-0.060
-0.015
-0.060
-0.045
-0.040
-0.060
-0.020
-0.050
-0.060
-0.030
-0.030
-0.025
-0.040
-0.045
-0.070
-0.030
-0.045
-0.065
-0.075
-0.055
-0.035
0.030
0.040
0.060
0.080
0.125
0.095
0.025
-0.005
-0.040
-0.100
-0.085
-0.125
-0.095
-0.115
-0.105
-0.120
-0.070
-0.025
0.325
0.540
-0.395
-0.335
-0.185
-0.080
-0.085
-0.110
-0.080
-0.110
-0.090
-0.090
-0.060
-0.070
-0.050
-0.045
-0.025
-0.015
0.005
0.015
0.030
0.065
0.115
0.135
0.195
0.205
0.255
0.275
0.305
0.300
0.305
0.250
0.175
0.115
0.050
0.000
-0.015
-0.030
-0.025
-0.040
-0.035
-0.040
-0.045
-0.035
-0.020
-0.005
-0.020
-0.030
-0.030
-0.030
-0.045
-0.030
-0.060
-0.025
-0.050
-0.050
-0.055
0.020
0.055
0.070
0.070
0.125
0.110
0.055
0.000
0.000
-0.085
-0.100
-0.110
-0.100
-0.120
-0.090
-0.115
-0.100
-0.085
0.175
0.495
-0.365
-0.415
-0.240
-0.100
-0.075
-0.090
-0.085
-0.115
-0.075
-0.095
-0.065
-0.070
-0.050
-0.060
-0.030
-0.030
0.000
0.005
0.040
0.060
0.110
0.130
0.180
0.205
0.250
0.265
0.285
0.305
0.305
0.270
0.200
0.130
0.085
0.025
-0.005
-0.025
-0.030
-0.040
-0.025
-0.030
-0.020
-0.025
-0.020
-0.045
-0.025
-0.025
-0.025
-0.040
-0.035
-0.045
-0.050
-0.050
-0.045
-0.055
-0.070
-0.010
0.045
0.040
0.050
0.100
0.090
0.065
0.000
-0.015
-0.080
-0.145
-0.135
-0.120
-0.125
-0.135
-0.100
-0.095
-0.090
0.050
0.310
0.055
-0.425
-0.335
-0.195
-0.080
-0.125
-0.110
-0.100
-0.105
-0.100
-0.090
-0.090
-0.070
-0.050
-0.050
-0.030
-0.035
-0.010
0.015
0.035
0.080
0.105
0.110
0.175
0.235
0.235
0.265
0.285
0.270
0.280
0.220
0.165
0.070
0.015
-0.020
-0.065
-0.065
-0.060
-0.075
-0.065
-0.055
-0.065
-0.050
-0.040
-0.050
-0.055
-0.045
-0.065
-0.080
-0.045
-0.080
-0.060
-0.070
-0.070
-0.080
0.000
0.010
0.050
0.045
0.100
0.070
0.030
-0.040
-0.035
-0.120
-0.100
-0.110
-0.100
-0.145
-0.120
-0.115
-0.095
-0.070
0.190
0.545
-0.350
-0.380
-0.240
-0.140
-0.115
-0.130
-0.090
-0.090
-0.090
-0.105
-0.050
-0.075
-0.025
-0.060
-0.030
-0.030
0.005
0.025
0.065
0.060
0.095
0.110
0.175
0.200
0.245
0.265
0.275
0.290
0.280
0.240
0.180
0.110
0.080
0.050
-0.030
-0.055
-0.050
-0.025
-0.030
-0.060
-0.040
-0.045
-0.045
-0.040
-0.020
-0.070
-0.050
-0.050
-0.035
-0.075
-0.060
-0.065
-0.080
-0.080
-0.055
-0.050
0.045
0.035
0.060
0.085
0.115
0.085
0.010
-0.010
-0.055
-0.125
-0.105
-0.130
-0.100
-0.105
-0.110
-0.110
-0.055
0.035
0.340
0.330
-0.425
-0.335
-0.165
-0.085
-0.095
-0.115
-0.105
-0.100
-0.080
-0.110
-0.080
-0.095
-0.060
-0.050
-0.035
-0.055
0.000
0.005
0.035
0.050
0.100
0.135
0.155
0.200
0.245
0.275
0.285
0.285
0.275
0.225
0.160
0.100
0.040
0.000
-0.020
-0.045
-0.055
-0.055
-0.060
-0.050
-0.060
-0.050
-0.035
-0.045
-0.045
-0.035
-0.055
-0.050
-0.060
-0.065
-0.070
-0.055
-0.070
-0.060
-0.050
0.015
0.045
0.065
0.060
0.115
0.075
0.045
-0.010
0.000
-0.090
-0.105
-0.120
-0.105
-0.125
-0.100
-0.120
-0.105
-0.085
0.160
0.480
-0.285
-0.405
-0.250
-0.105
-0.090
-0.100
-0.090
-0.105
-0.080
-0.095
-0.070
-0.075
-0.055
-0.055
-0.030
-0.030
-0.005
0.000
0.035
0.055
0.100
0.135
0.170
0.185
0.245
0.250
0.265
0.290
0.295
0.250
0.205
0.125
0.075
0.025
-0.015
-0.025
-0.040
-0.045
-0.060
-0.035
-0.030
-0.025
-0.020
-0.030
-0.035
-0.040
-0.045
-0.030
-0.035
-0.040
-0.045
-0.060
-0.055
-0.040
-0.045
0.030
0.025
0.075
0.080
0.120
0.095
0.040
-0.005
-0.030
-0.105
-0.080
-0.120
-0.085
-0.140
-0.075
-0.110
-0.040
-0.045
0.205
0.500
-0.405
-0.370
-0.230
-0.120
-0.105
-0.100
-0.095
-0.105
-0.095
-0.105
-0.065
-0.070
-0.070
-0.045
-0.010
-0.035
-0.005
0.005
0.035
0.075
0.090
0.140
0.175
0.185
0.240
0.285
0.315
0.280
0.290
0.270
0.200
0.100
0.060
-0.020
-0.005
-0.030
-0.030
-0.065
-0.030
-0.040
-0.050
-0.030
-0.020
-0.045
-0.035
-0.040
-0.015
-0.030
-0.045
-0.055
-0.045
-0.060
-0.040
-0.050
0.000
0.030
0.060
0.065
0.145
0.115
0.065
0.000
0.000
-0.050
-0.115
-0.115
-0.110
-0.110
-0.100
-0.105
-0.085
-0.090
0.225
0.590
-0.185
-0.380
-0.210
-0.105
-0.070
-0.100
-0.090
-0.105
-0.080
-0.090
-0.065
-0.080
-0.075
-0.060
-0.025
-0.030
0.000
0.005
0.035
0.045
0.060
0.115
0.160
0.180
0.230
0.260
0.275
0.285
0.285
0.260
0.180
0.130
0.075
0.025
-0.025
-0.040
-0.040
-0.045
-0.030
-0.035
-0.045
-0.030
-0.040
-0.035
-0.030
-0.015
-0.030
-0.045
-0.050
-0.055
-0.055
-0.060
-0.050
-0.055
-0.040
0.035
0.045
0.070
0.105
0.110
0.105
0.005
0.000
-0.040
-0.105
-0.095
-0.085
-0.090
-0.105
-0.095
-0.105
-0.040
0.105
0.390
0.185
-0.445
-0.310
-0.125
-0.055
-0.095
-0.115
-0.090
-0.095
-0.085
-0.090
-0.070
-0.080
-0.065
-0.065
-0.030
-0.025
0.000
0.020
0.050
0.075
0.110
0.150
0.175
0.215
0.250
0.265
0.280
0.280
0.260
0.215
0.150
0.090
0.045
0.020
-0.020
-0.025
-0.030
-0.045
-0.035
-0.025
-0.020
-0.025
-0.015
-0.025
-0.020
-0.025
-0.030
-0.035
-0.035
-0.040
-0.050
-0.055
-0.050
-0.060
0.000
0.045
0.055
0.060
0.120
0.090
0.065
-0.005
0.000
-0.080
-0.110
-0.115
-0.115
-0.120
-0.105
-0.130
-0.105
-0.065
0.125
0.400
-0.190
-0.425
-0.270
-0.125
-0.080
-0.085
-0.105
-0.120
-0.105
-0.090
-0.080
-0.085
-0.065
-0.055
-0.045
-0.035
-0.005
0.015
0.020
0.065
0.085
0.095
0.170
0.210
0.215
0.230
0.270
0.285
0.290
0.245
0.200
0.135
0.075
0.015
0.000
-0.020
-0.040
-0.045
-0.035
-0.015
-0.010
-0.025
-0.035
-0.020
-0.035
-0.025
-0.025
-0.020
-0.045
-0.040
-0.055
-0.050
-0.050
-0.055
-0.025
0.055
0.040
0.060
0.110
0.115
0.070
0.020
0.005
-0.070
-0.115
-0.095
-0.095
-0.120
-0.120
-0.100
-0.105
-0.055
0.100
0.345
0.105
-0.380
-0.290
-0.185
-0.075
-0.090
-0.105
-0.105
-0.110
-0.080
-0.060
-0.085
-0.055
-0.065
-0.075
-0.025
0.005
0.025
0.015
0.050
0.065
0.110
0.140
0.190
0.215
0.235
0.265
0.275
0.275
0.270
0.215
0.140
0.090
0.010
-0.010
-0.030
-0.035
-0.030
-0.045
-0.040
-0.030
-0.015
-0.040
-0.015
-0.015
-0.040
-0.025
-0.045
-0.040
-0.035
-0.055
-0.035
-0.055
-0.070
-0.035
0.040
0.045
0.070
0.095
0.100
0.075
0.015
-0.005
-0.080
-0.115
-0.100
-0.125
-0.095
-0.100
-0.110
-0.120
-0.050
0.120
0.420
0.220
-0.380
-0.285
-0.145
-0.100
-0.085
-0.115
-0.100
-0.120
-0.100
-0.090
-0.075
-0.075
-0.055
-0.025
-0.035
-0.015
0.005
0.040
0.040
0.085
0.115
0.165
0.205
0.225
0.255
0.260
0.285
0.305
0.295
0.220
0.155
0.095
0.065
0.000
-0.020
-0.025
-0.010
-0.030
-0.015
-0.025
0.000
-0.030
0.005
-0.005
-0.020
-0.030
-0.015
-0.035
-0.015
-0.025
-0.035
-0.050
-0.035
-0.020
0.040
0.060
0.080
0.100
0.145
0.110
0.035
0.000
-0.005
-0.065
-0.085
-0.110
-0.085
-0.110
-0.075
-0.105
-0.055
0.015
0.320
0.455
-0.430
-0.345
-0.150
-0.055
-0.085
-0.105
-0.070
-0.100
-0.070
-0.080
-0.065
-0.065
-0.050
-0.045
-0.020
-0.015
0.025
0.020
0.045
0.080
0.105
0.140
0.175
0.205
0.240
0.260
0.270
0.265
0.265
0.230
0.170
0.110
0.055
0.015
0.005
0.000
-0.015
-0.010
-0.020
-0.020
-0.010
-0.010
0.000
-0.020
-0.005
-0.025
-0.025
-0.040
-0.040
-0.040
-0.040
-0.050
-0.040
-0.040
0.010
0.045
0.075
0.055
0.120
0.080
0.040
-0.020
-0.035
-0.140
-0.150
-0.160
-0.130
-0.115
-0.105
-0.135
-0.090
-0.070
0.185
0.470
-0.430
-0.410
-0.205
-0.105
-0.115
-0.110
-0.080
-0.100
-0.075
-0.100
-0.075
-0.075
-0.050
-0.055
-0.035
-0.040
0.010
0.025
0.045
0.055
0.105
0.120
0.185
0.215
0.240
0.225
0.260
0.265
0.285
0.245
0.175
0.125
0.040
-0.010
-0.030
-0.025
-0.045
-0.020
-0.035
-0.035
-0.020
-0.025
-0.030
-0.020
-0.045
-0.020
-0.050
-0.040
-0.060
-0.020
-0.065
-0.080
-0.065
0.010
0.055
0.055
0.080
0.120
0.085
0.055
-0.005
-0.005
-0.085
-0.130
-0.115
-0.095
-0.115
-0.095
-0.125
-0.095
-0.060
0.230
0.550
-0.325
-0.370
-0.215
-0.120
-0.085
-0.105
-0.085
-0.105
-0.070
-0.110
-0.075
-0.055
-0.050
-0.055
-0.020
-0.025
0.005
0.020
0.040
0.060
0.105
0.115
0.180
0.205
0.235
0.250
0.290
0.280
0.280
0.245
0.190
0.135
0.075
0.010
0.000
-0.030
-0.010
-0.025
-0.025
-0.025
-0.025
0.000
-0.015
-0.030
-0.010
-0.025
-0.020
-0.025
-0.035
-0.045
-0.035
-0.070
-0.035
-0.020
0.030
0.045
0.080
0.085
0.135
0.100
0.025
0.000
-0.020
-0.095
-0.095
-0.105
-0.090
-0.115
-0.090
-0.120
-0.055
0.010
0.315
0.505
-0.395
-0.335
-0.160
-0.075
-0.090
-0.110
-0.080
-0.105
-0.095
-0.105
-0.060
-0.070
-0.060
-0.060
-0.020
-0.030
0.000
0.000
0.045
0.060
0.100
0.140
0.165
0.190
0.225
0.250
0.265
0.260
0.250
0.220
0.150
0.085
0.050
0.005
-0.010
-0.030
-0.015
-0.030
-0.045
-0.035
-0.025
-0.045
-0.020
-0.015
-0.005
-0.025
-0.030
-0.055
-0.045
-0.065
-0.045
-0.070
-0.055
-0.050
0.010
0.055
0.065
0.060
0.115
0.090
0.050
0.000
-0.010
-0.095
-0.095
-0.120
-0.105
-0.125
-0.100
-0.115
-0.070
-0.060
0.225
0.495
-0.420
-0.400
-0.200
-0.095
-0.095
-0.110
-0.090
-0.095
-0.075
-0.100
-0.085
-0.090
-0.060
-0.060
-0.040
-0.035
0.000
0.010
0.040
0.065
0.090
0.105
0.160
0.185
0.220
0.220
0.250
0.255
0.255
0.220
-0.230
-0.105
0.000
0.000
0.060
0.090
0.025
0.100
0.135
0.560
0.730
0.285
-0.860
-2.800
-1.950
-1.400
-0.540
0.025
-0.060
0.095
0.010
0.070
-0.015
0.070
-0.015
-0.005
-0.030
0.010
-0.065
0.040
0.035
0.055
0.015
0.090
0.080
0.110
0.045
0.050
-0.045
0.005
-0.085
-0.285
-0.485
-0.905
-0.650
-0.515
-0.320
-0.250
2.020
1.385
-0.160
-0.595
-0.080
-0.190
0.100
0.230
0.500
1.795
0.765
0.860
0.625
0.550
0.235
0.455
0.965
0.905
0.740
0.590
0.240
0.560
0.170
0.120
-0.190
-0.115
0.330
0.545
0.380
-0.085
-0.455
-0.325
-0.515
-0.870
-0.840
-1.240
-1.125
-1.095
-0.885
-0.940
-0.820
-0.900
-0.880
-1.095
-1.030
-1.135
-1.195
-1.355
-1.385
-1.520
-1.715
-1.875
-2.095
-2.265
-2.540
-2.890
-3.160
-3.420
-3.800
-4.080
-4.470
-4.585
-4.940
-5.465
-5.855
-6.175
-6.630
-6.930
-7.520
-7.690
-7.990
-8.185
-8.615
-8.905
-9.130
-9.230
-9.570
-9.530
-9.790
-9.745
-9.885
-9.600
-9.675
-9.350
-9.240
-8.650
-8.435
-7.855
-7.305
-6.425
-5.760
-4.630
-3.585
-2.155
-1.085
0.565
1.945
3.800
5.260
7.325
9.200
-8.690
-6.600
-3.730
-1.280
-9.880
9.865
-9.850
9.830
-9.810
9.790
-9.770
9.745
-9.725
9.700
-9.675
9.650
-9.625
9.600
-9.575
9.550
-9.525
9.500
-9.480
9.460
-9.440
9.420
-9.405
9.385
-9.375
9.365
-9.355
9.350
-9.350
9.350
-9.355
9.360
-8.025
9.385
1.680
9.435
-9.445
-2.470
-9.505
4.620
-9.575
9.615
-9.655
9.700
-9.750
9.800
-9.845
9.900
-9.950
10.005
-10.060
10.115
-10.170
10.225
10.200
-10.145
10.095
-10.050
10.000
-9.955
9.915
-9.875
9.835
-9.800
9.770
-9.740
9.715
-9.695
9.675
-9.660
9.645
-9.640
9.630
-9.630
9.630
-9.630
9.635
-9.645
9.655
-9.670
9.680
-9.700
9.715
-9.735
9.750
-9.770
9.790
-9.810
9.830
-9.855
9.875
-9.895
9.910
-9.930
9.945
-9.965
9.980
-9.995
10.005
-10.020
10.030
-10.035
10.045
-10.050
10.055
-10.060
10.060
-10.065
10.065
-10.065
10.065
-10.060
-2.030
-3.585
-5.710
-6.950
-8.805
-9.755
9.120
8.440
7.070
6.645
5.490
5.305
4.355
4.390
3.640
3.885
3.325
3.765
3.405
4.035
3.870
4.685
4.725
5.725
5.980
7.170
7.665
9.050
9.805
-9.070
-8.035
-6.205
-4.855
-2.765
-1.075
-10.120
10.130
-10.140
10.150
-10.160
10.170
-10.185
10.195
-10.210
10.220
-10.230
-10.235
10.220
-10.210
10.195
-10.185
10.175
-10.165
10.150
-10.140
10.130
-10.120
10.110
-10.100
10.090
-10.080
10.070
-10.065
10.055
-10.050
10.040
-10.035
10.030
-10.025
10.015
-10.015
10.010
-10.005
10.005
-10.005
10.000
-10.000
10.000
-10.005
10.005
-10.005
10.010
-10.010
10.015
-10.020
10.025
-10.030
10.035
-10.045
10.050
-10.055
10.065
-10.070
10.080
-10.085
10.095
-10.100
10.110
-10.115
10.125
-10.135
10.140
-10.150
10.155
-10.160
10.170
-10.175
10.180
-10.185
10.195
-10.195
10.205
-10.205
10.210
-10.215
10.220
-10.220
10.225
-10.225
10.230
-10.230
10.230
-10.235
10.235
-10.235
-10.235
10.235
-10.235
10.235
-10.230
10.230
-10.225
10.225
-10.220
10.220
-10.215
10.215
-10.210
10.205
-10.200
10.195
-10.190
10.185
-10.180
10.175
-10.165
10.160
-10.150
10.145
-10.135
10.130
-10.120
10.115
-10.105
10.095
-10.090
10.080
-10.075
10.065
-10.060
10.055
-10.045
10.040
-10.035
10.030
-10.025
10.020
-10.015
10.015
-10.010
10.010
-10.010
10.010
-10.015
10.015
-10.015
10.020
-10.025
10.030
-10.035
10.045
-10.050
10.060
-10.070
10.075
-10.085
10.095
-10.105
10.120
-10.130
10.140
-10.150
10.160
-10.175
10.185
-10.195
10.205
-10.215
10.225
-10.235
-10.230
10.220
-10.215
10.205
-10.200
10.195
-10.190
10.185
-10.185
10.180
-10.180
10.180
-10.180
10.180
-3.465
10.185
-10.190
10.195
-10.195
10.200
-10.205
10.215
-10.220
10.225
-10.230
-10.235
10.230
-10.220
10.215
-10.210
10.200
0.885
2.070
3.785
4.715
6.225
7.175
8.585
9.370
-9.850
-9.160
-8.325
-7.910
-7.000
-5.730
-2.680
-2.145
-2.645
-2.920
-3.145
-3.350
-2.525
-2.405
-1.875
-1.645
-1.280
-1.240
-0.920
-0.925
-0.620
-0.725
-0.520
-0.570
-0.430
-0.435
-0.315
-0.380
-0.210
-0.305
-0.150
-0.225
0.015
-0.045
0.080
-0.015
0.155
-0.020
0.100
0.000
0.020
-0.060
-0.195
-0.230
-0.030
0.010
-0.090
-0.035
-0.020
-0.090
-0.100
-0.065
-0.080
-0.150
-0.175
-0.125
-0.105
-0.070
-0.115
-0.085
-0.070
-0.075
-0.035
-0.035
-0.100
-0.070
-0.075
-0.075
-0.045
-0.030
-0.090
-0.015
-0.030
0.035
0.100
0.130
0.285
0.245
0.185
0.105
0.040
-0.120
-0.090
-0.155
-0.080
-0.140
-0.145
-0.545
-0.760
-0.525
0.415
2.535
2.035
1.270
0.675
-0.010
-0.105
-0.155
-0.155
-0.165
-0.170
-0.100
-0.180
-0.150
-0.145
-0.200
-0.155
-0.165
-0.115
-0.180
-0.160
-0.225
-0.190
-0.160
-0.155
-0.115
-0.125
-0.110
-0.025
0.060
0.110
0.135
0.150
0.105
0.140
0.095
0.040
0.090
-0.010
-0.030
-0.005
-0.010
-0.030
-0.045
-0.055
-0.080
-0.025
-0.120
-0.170
-0.110
-0.145
-0.130
-0.075
-0.080
-0.130
-0.075
-0.020
-0.105
-0.125
-0.055
-0.080
-0.105
-0.075
-0.075
-0.070
-0.050
-0.080
-0.015
-0.010
0.110
0.140
0.265
0.170
0.175
0.175
-0.050
-0.115
-0.030
-0.035
-0.130
-0.160
-0.150
-0.435
-0.780
-0.730
-0.010
2.475
2.395
1.410
0.740
-0.065
-0.075
-0.125
-0.200
-0.205
-0.165
-0.160
-0.155
-0.140
-0.145
-0.200
-0.145
-0.165
-0.195
-0.220
-0.190
-0.190
-0.165
-0.195
-0.200
-0.200
-0.045
-0.080
-0.150
-0.015
0.055
0.055
0.145
0.095
0.085
0.105
0.090
0.065
-0.015
0.005
0.010
0.000
0.020
-0.035
-0.060
-0.080
-0.115
-0.150
-0.125
-0.070
-0.105
-0.150
-0.125
-0.120
-0.065
-0.095
-0.070
-0.060
-0.115
-0.125
-0.060
-0.125
-0.095
-0.085
-0.035
-0.045
-0.030
-0.085
-0.055
0.025
0.100
0.150
0.270
0.225
0.165
0.055
-0.045
-0.080
-0.090
-0.095
-0.095
-0.125
-0.130
-0.670
-0.825
-0.395
0.670
2.720
1.965
1.330
0.520
-0.170
-0.105
-0.205
-0.155
-0.175
-0.125
-0.195
-0.130
-0.150
-0.190
-0.175
-0.155
-0.195
-0.190
-0.185
-0.110
-0.205
-0.215
-0.205
-0.180
-0.155
-0.075
-0.130
-0.045
0.055
0.050
0.105
0.120
0.080
0.115
0.120
0.060
0.015
0.035
-0.005
0.000
0.025
-0.025
-0.065
-0.065
-0.095
-0.090
-0.095
-0.075
-0.100
-0.165
-0.125
-0.115
-0.075
-0.085
-0.135
-0.145
-0.055
-0.085
-0.135
-0.095
-0.045
-0.055
-0.120
-0.105
-0.110
-0.050
-0.075
-0.075
-0.035
-0.015
0.060
0.120
0.260
0.160
0.155
0.080
-0.045
-0.065
-0.070
-0.115
-0.095
-0.175
-0.145
-0.535
-0.740
-0.660
0.085
2.405
2.340
1.415
0.810
0.010
-0.130
-0.170
-0.175
-0.220
-0.160
-0.145
-0.185
-0.170
-0.175
-0.210
-0.195
-0.220
-0.125
-0.190
-0.195
-0.185
-0.220
-0.190
-0.165
-0.200
-0.110
-0.095
-0.050
0.015
0.045
0.120
0.190
0.160
0.095
0.115
0.075
0.045
0.030
0.015
0.020
-0.030
-0.025
-0.005
-0.100
-0.065
-0.055
-0.090
-0.120
-0.100
-0.090
-0.175
-0.125
-0.110
-0.115
-0.100
-0.115
-0.025
-0.050
-0.125
-0.135
-0.095
-0.005
-0.095
-0.115
-0.100
-0.045
0.065
-0.155
-0.120
-0.085
-0.050
0.005
-0.105
-0.075
0.055
0.185
0.110
0.195
0.210
0.155
0.110
0.000
-0.025
-0.095
-0.110
-0.080
-0.165
-0.130
-0.440
-0.710
-0.725
0.000
2.250
2.400
1.410
0.915
0.055
-0.125
-0.175
-0.135
-0.135
-0.195
-0.220
-0.145
-0.095
-0.180
-0.195
-0.135
-0.150
-0.185
-0.180
-0.140
-0.150
-0.200
-0.230
-0.155
-0.065
-0.135
-0.135
-0.030
0.080
0.050
0.120
0.160
0.255
0.155
0.085
0.125
0.095
0.030
0.030
0.095
0.050
-0.065
-0.040
0.010
-0.075
-0.025
-0.100
-0.060
-0.130
-0.115
-0.040
-0.075
-0.080
-0.105
-0.080
-0.055
-0.015
-0.095
-0.055
-0.055
-0.040
-0.070
-0.045
0.025
-0.120
-0.125
-0.070
-0.005
-0.105
-0.115
-0.055
0.000
-0.085
-0.155
-0.090
-0.070
0.040
-0.025
0.090
0.185
0.335
0.170
0.140
0.060
-0.025
-0.050
-0.090
-0.095
-0.120
-0.100
-0.105
-0.550
-0.730
-0.630
0.205
2.490
2.235
1.365
0.755
0.010
-0.120
-0.150
-0.135
-0.200
-0.175
-0.175
-0.170
-0.170
-0.135
-0.160
-0.175
-0.190
-0.180
-0.245
-0.200
-0.215
-0.180
-0.175
-0.210
-0.115
-0.110
-0.200
-0.095
-0.015
0.095
0.110
0.150
0.225
0.095
0.055
0.035
0.065
0.070
0.005
-0.020
0.020
0.065
-0.010
-0.085
-0.045
-0.065
-0.115
-0.120
-0.110
-0.130
-0.105
-0.100
-0.070
-0.130
-0.140
-0.100
-0.095
-0.055
-0.095
-0.075
0.000
-0.110
-0.130
-0.075
-0.050
-0.085
-0.060
-0.110
-0.080
-0.030
-0.030
-0.130
-0.065
-0.060
-0.030
0.075
0.115
0.215
0.230
0.140
0.180
-0.070
-0.050
-0.135
-0.080
-0.110
-0.060
-0.100
-0.405
-0.690
-0.860
-0.240
1.700
2.725
1.630
1.220
0.165
-0.160
-0.110
-0.185
-0.205
-0.210
-0.140
-0.150
-0.190
-0.185
-0.110
-0.220
-0.165
-0.160
-0.160
-0.235
-0.205
-0.165
-0.230
-0.185
-0.230
-0.160
-0.155
-0.135
-0.055
-0.005
0.070
0.160
0.135
0.150
0.090
0.020
0.055
0.050
0.060
0.005
0.035
0.035
0.035
-0.085
-0.085
-0.055
-0.075
-0.075
-0.045
-0.125
-0.125
-0.090
-0.070
-0.150
-0.065
-0.025
-0.110
-0.125
-0.085
-0.065
-0.070
-0.070
-0.010
-0.075
-0.090
-0.080
-0.115
-0.105
-0.080
-0.020
-0.060
-0.085
0.040
-0.055
-0.090
0.040
0.185
0.185
0.195
0.175
0.130
-0.030
-0.060
-0.090
-0.105
-0.150
-0.060
-0.145
-0.335
-0.660
-0.865
-0.175
1.875
2.625
1.500
1.105
0.175
-0.145
-0.075
-0.155
-0.190
-0.140
-0.145
-0.225
-0.180
-0.155
-0.160
-0.210
-0.130
-0.125
-0.210
-0.245
-0.205
-0.140
-0.195
-0.275
-0.150
-0.125
-0.175
-0.135
-0.050
0.090
0.060
0.085
0.145
0.265
0.115
0.015
0.060
0.110
0.110
-0.030
-0.010
0.025
0.000
-0.035
-0.010
0.015
-0.145
-0.120
-0.110
-0.015
-0.055
-0.160
-0.130
-0.015
-0.020
-0.130
-0.125
-0.035
-0.005
-0.100
-0.085
-0.020
-0.040
-0.110
-0.080
-0.045
-0.025
-0.115
-0.090
-0.050
-0.010
-0.085
-0.120
-0.065
-0.095
-0.075
-0.085
-0.030
0.105
0.090
0.120
0.230
0.185
0.190
0.015
-0.060
-0.100
-0.005
-0.185
-0.145
-0.125
-0.115
-0.635
-0.795
-0.400
0.590
2.655
1.935
1.290
0.620
-0.080
-0.075
-0.115
-0.180
-0.190
-0.190
-0.200
-0.150
-0.130
-0.110
-0.205
-0.190
-0.110
-0.110
-0.235
-0.225
-0.200
-0.065
-0.200
-0.250
-0.160
-0.050
-0.180
-0.075
-0.005
0.085
0.220
0.100
0.125
0.245
0.050
0.020
0.035
0.100
0.015
-0.020
-0.010
0.035
0.065
-0.125
-0.080
-0.035
-0.025
-0.150
-0.130
-0.115
-0.055
-0.090
-0.135
-0.065
-0.055
-0.075
-0.120
-0.070
-0.080
-0.035
-0.100
-0.060
-0.065
-0.080
-0.065
-0.030
-0.075
-0.080
-0.055
-0.045
-0.100
-0.065
-0.085
0.020
-0.050
-0.100
-0.045
0.010
0.065
0.100
0.245
0.250
0.200
0.115
0.020
-0.070
-0.065
-0.115
-0.135
-0.065
-0.125
-0.320
-0.670
-0.800
-0.335
1.410
2.810
1.690
1.135
0.355
-0.120
-0.150
-0.205
-0.115
-0.135
-0.145
-0.190
-0.195
-0.150
-0.120
-0.180
-0.175
-0.180
-0.080
-0.250
-0.200
-0.210
-0.245
-0.190
-0.180
-0.195
-0.135
-0.080
-0.010
-0.015
0.040
0.105
0.125
0.115
0.095
0.095
0.055
0.095
0.000
-0.015
0.015
-0.025
0.000
-0.030
-0.020
-0.060
-0.040
-0.020
-0.135
-0.135
-0.100
-0.110
-0.105
-0.065
-0.045
-0.115
-0.110
-0.045
-0.090
-0.085
-0.070
-0.115
-0.065
-0.020
-0.085
-0.145
-0.065
-0.080
-0.115
-0.030
-0.095
-0.170
-0.055
-0.035
-0.045
0.010
0.065
0.185
0.280
0.140
0.130
0.045
-0.050
-0.095
-0.050
-0.175
-0.110
-0.155
-0.205
-0.695
-0.775
-0.425
0.850
2.835
1.950
1.285
0.435
-0.150
-0.130
-0.185
-0.145
-0.185
-0.160
-0.150
-0.105
-0.185
-0.135
-0.190
-0.190
-0.240
-0.155
-0.165
-0.210
-0.240
-0.160
-0.210
-0.145
-0.235
-0.195
-0.160
-0.090
-0.020
-0.015
0.095
0.180
0.040
0.070
0.070
0.045
0.040
0.060
0.015
-0.105
-0.090
-0.035
-0.055
-0.115
-0.120
-0.190
0.015
0.030
0.200
0.040
0.165
-0.130
-0.060
-0.050
-0.005
-0.100
-0.095
-0.060
-0.030
-0.050
-0.085
0.050
-0.125
-0.065
-0.055
-0.075
-0.075
-0.100
-0.070
-0.005
-0.025
-0.105
0.040
0.080
0.140
0.265
0.290
0.130
0.180
-0.060
-0.105
-0.220
-0.115
-0.140
-0.165
-0.275
-0.345
-0.710
-0.825
-0.305
1.480
2.685
1.745
1.215
0.370
0.040
0.150
-0.080
-0.035
0.025
-0.105
-0.075
-0.120
-0.055
-0.330
-0.155
-0.250
-0.205
-0.480
-0.365
-0.285
-0.270
-0.355
-0.390
-0.295
-0.220
-0.285
-0.285
-0.210
-0.130
-0.080
-0.050
0.000
0.060
0.185
0.040
0.075
0.020
0.100
0.020
0.110
-0.065
0.110
-0.100
0.115
-0.095
-0.075
-0.165
-0.080
-0.105
-0.060
-0.075
0.005
0.090
-0.095
-0.015
-0.035
0.010
-0.070
-0.110
-0.095
-0.015
-0.005
-0.095
0.005
-0.125
-0.085
-0.075
-0.025
-0.070
-0.030
-0.070
-0.055
-0.090
0.020
0.105
0.120
0.185
0.275
0.225
0.220
0.120
0.045
0.000
0.075
0.120
-0.030
-0.040
-0.045
-0.415
-0.850
-0.350
0.870
2.665
1.755
1.320
0.345
-0.270
-0.265
-0.175
-0.320
-0.405
-0.295
-0.260
-0.180
-0.270
-0.060
-0.055
0.020
-0.065
-0.040
-0.130
-0.130
-0.205
-0.150
-0.190
-0.120
-0.105
-0.085
-0.100
-0.145
-0.095
0.000
0.025
0.100
0.090
0.135
0.090
0.080
-0.005
0.050
0.035
0.050
0.065
0.040
-0.020
0.045
-0.070
-0.120
-0.190
-0.145
-0.170
-0.295
-0.345
-0.350
-0.190
-0.180
-0.125
-0.130
-0.080
-0.080
-0.100
-0.070
-0.085
-0.120
-0.070
-0.095
-0.055
-0.045
-0.090
-0.050
-0.060
-0.045
-0.005
-0.025
-0.065
-0.035
0.140
0.105
0.170
0.300
0.320
0.200
0.290
0.165
0.130
0.205
0.060
-0.210
-0.110
-0.120
-0.500
-0.770
-0.750
-0.005
2.225
2.335
1.390
0.890
0.050
-0.020
-0.190
-0.200
-0.165
-0.145
-0.160
-0.155
-0.200
-0.160
-0.115
-0.080
-0.250
-0.215
-0.140
-0.185
-0.200
-0.200
-0.210
-0.195
-0.160
-0.180
-0.180
-0.130
-0.040
-0.015
0.045
0.100
0.120
0.115
0.075
0.060
0.030
0.005
0.035
0.060
-0.020
-0.045
-0.040
0.000
-0.040
-0.085
-0.075
-0.060
-0.110
-0.135
-0.095
-0.070
-0.140
-0.105
-0.060
-0.040
-0.105
-0.090
-0.115
-0.045
-0.045
-0.040
-0.070
-0.015
-0.135
-0.145
-0.125
-0.025
-0.135
-0.115
-0.180
-0.475
-0.350
-0.360
-0.100
0.095
0.140
0.130
0.340
0.315
0.165
0.100
0.005
-0.060
-0.040
-0.065
-0.095
-0.010
-0.030
-0.425
-0.725
-0.680
0.030
2.220
2.480
1.485
1.000
0.090
-0.045
-0.095
-0.065
-0.100
-0.110
-0.050
-0.140
-0.105
-0.095
-0.325
-0.245
-0.235
-0.200
-0.110
-0.230
-0.265
-0.275
-0.200
-0.270
-0.160
-0.260
-0.270
-0.125
-0.050
-0.040
0.045
0.175
0.255
0.100
0.080
0.120
0.095
0.035
-0.040
0.000
0.055
-0.030
-0.120
0.015
-0.040
-0.130
-0.145
-0.070
-0.100
-0.110
-0.110
-0.085
-0.150
-0.120
-0.080
-0.090
-0.160
-0.070
-0.100
-0.035
-0.055
-0.115
-0.085
-0.050
-0.095
-0.080
-0.130
-0.080
-0.040
-0.010
-0.125
-0.095
0.055
0.100
0.075
0.240
0.225
0.135
0.105
0.000
-0.090
-0.130
-0.070
-0.080
-0.150
-0.160
-0.525
-0.810
-0.635
0.190
2.630
2.300
1.455
0.770
-0.095
-0.100
-0.130
-0.135
-0.280
-0.395
-0.215
-0.190
-0.250
-0.235
-0.210
-0.145
-0.155
-0.150
-0.160
-0.170
-0.245
-0.160
-0.220
-0.215
-0.220
-0.205
-0.235
-0.090
-0.095
0.000
0.080
0.055
0.035
0.075
0.095
0.055
0.045
0.045
0.035
-0.040
-0.035
0.035
-0.100
-0.030
-0.050
-0.050
-0.050
-0.065
-0.055
0.030
-0.095
-0.070
-0.095
-0.105
-0.105
-0.080
-0.065
-0.080
-0.040
-0.115
-0.115
-0.080
-0.060
-0.135
-0.030
-0.135
-0.035
-0.030
-0.050
-0.040
0.130
0.170
0.195
0.180
0.195
0.170
-0.065
-0.135
-0.010
-0.060
-0.120
-0.190
-0.135
-0.505
-0.750
-0.645
0.175
2.655
2.255
1.310
0.905
-0.025
-0.115
-0.125
-0.120
-0.095
-0.235
-0.240
-0.085
-0.240
-0.220
-0.195
-0.190
-0.280
-0.205
-0.190
-0.160
-0.310
-0.270
-0.200
-0.250
-0.260
-0.175
-0.185
-0.110
-0.145
-0.065
0.000
0.050
0.035
0.045
0.000
-0.020
-0.030
0.015
-0.070
0.030
-0.020
-0.035
-0.020
-0.020
-0.060
-0.140
-0.125
-0.090
-0.165
-0.075
-0.120
-0.035
-0.080
-0.230
-0.120
-0.170
-0.125
-0.075
-0.035
0.040
0.060
0.025
0.055
0.040
0.065
0.070
0.075
-0.005
0.070
0.130
0.325
0.320
0.270
0.175
0.225
0.010
-0.140
-0.185
-0.060
-0.140
-0.095
-0.160
-0.360
-0.720
-0.820
-0.115
1.990
2.620
1.525
1.090
0.220
-0.130
-0.115
-0.140
-0.125
-0.145
-0.115
-0.155
-0.175
-0.120
-0.120
-0.205
-0.150
-0.160
-0.215
-0.215
-0.200
-0.195
-0.255
-0.245
-0.170
-0.195
-0.215
-0.110
-0.105
-0.010
0.015
0.085
0.075
0.095
0.085
0.040
-0.010
0.040
0.010
-0.015
-0.035
-0.025
-0.070
-0.020
-0.065
-0.080
-0.090
-0.140
-0.145
-0.160
-0.090
-0.130
-0.090
-0.105
-0.090
-0.170
-0.145
-0.135
-0.090
-0.095
-0.050
-0.070
-0.055
-0.065
-0.095
-0.060
-0.120
-0.120
-0.030
0.040
0.110
0.125
0.220
0.200
0.085
0.020
0.000
-0.125
-0.115
-0.110
-0.125
-0.125
-0.130
-0.605
-0.850
-0.460
0.510
2.595
2.010
1.265
0.660
-0.090
-0.155
-0.205
-0.165
-0.205
-0.170
-0.205
-0.195
-0.220
-0.185
-0.180
-0.180
-0.180
-0.155
-0.215
-0.115
-0.225
-0.145
-0.255
-0.160
-0.235
-0.155
-0.180
-0.040
-0.105
0.025
0.065
0.150
0.130
0.155
0.135
0.240
0.135
0.060
0.100
-0.050
-0.025
-0.075
-0.035
-0.080
-0.010
-0.155
-0.085
-0.110
-0.070
-0.110
-0.095
-0.165
-0.145
-0.100
-0.075
-0.195
-0.115
-0.100
-0.035
-0.140
-0.100
-0.130
-0.005
-0.130
-0.110
-0.105
0.025
-0.045
-0.045
0.020
0.125
0.340
0.195
0.105
0.115
0.050
-0.015
-0.080
-0.085
-0.070
-0.070
-0.085
-0.410
-0.705
-0.855
-0.115
1.805
2.630
1.445
1.075
0.175
-0.100
-0.075
-0.165
-0.175
-0.200
-0.185
-0.180
-0.135
-0.190
-0.105
-0.160
-0.105
-0.145
-0.140
-0.200
-0.185
-0.165
-0.130
-0.195
-0.150
-0.145
-0.090
-0.040
0.130
0.190
0.210
0.175
0.195
0.180
0.125
0.085
0.045
0.035
-0.020
0.080
0.005
-0.030
-0.010
0.050
-0.025
-0.015
-0.030
0.025
-0.085
-0.055
-0.065
-0.040
-0.070
-0.070
-0.025
-0.080
-0.060
-0.285
-0.380
-0.370
0.115
0.195
0.270
-0.020
-0.640
-0.855
-1.160
-1.265
-0.720
-0.310
-0.050
0.010
0.040
0.110
-0.025
0.050
-0.055
0.010
-0.010
0.100
0.095
0.155
0.140
0.250
0.200
0.315
0.320
0.370
0.340
0.415
0.270
0.385
0.240
0.370
0.195
0.330
0.095
0.160
0.130
0.095
-0.080
0.100
-0.085
0.045
0.000
-0.015
-0.125
-0.090
-0.200
0.000
-0.185
-0.020
-0.185
0.035
-0.175
-0.005
-0.170
-0.095
-0.200
-0.135
0.215
-0.105
-0.005
-0.170
0.260
0.160
-0.060
-0.060
0.055
-0.075
-0.025
-0.105
-0.040
-0.110
0.000
-0.095
-0.085
-0.105
-0.035
-0.130
-0.065
-0.090
-0.110
-0.110
0.005
-0.080
-0.090
-0.095
0.005
-0.135
-0.110
-0.100
-0.060
-0.010
-0.125
-0.060
0.095
0.115
0.105
0.215
0.205
0.185
0.025
-0.065
-0.070
-0.085
-0.160
-0.130
-0.125
-0.330
-0.715
-0.805
-0.140
1.955
2.545
1.485
1.085
0.195
-0.085
-0.210
-0.200
-0.170
-0.210
-0.180
-0.190
-0.120
-0.185
-0.185
-0.115
-0.200
-0.235
-0.170
-0.215
-0.180
-0.195
-0.150
-0.200
-0.190
-0.135
-0.145
-0.085
-0.040
0.045
0.085
0.170
0.205
0.170
0.225
0.135
0.085
0.080
0.050
0.030
0.000
0.015
-0.040
0.015
-0.020
-0.075
-0.125
-0.115
-0.070
-0.165
-0.165
-0.145
-0.095
-0.225
-0.180
-0.125
-0.085
-0.150
-0.030
-0.105
-0.110
-0.095
-0.085
-0.130
-0.080
-0.065
0.000
0.105
0.160
0.230
0.220
0.135
0.095
0.005
-0.040
-0.090
-0.070
-0.110
-0.065
-0.125
-0.320
-0.700
-0.870
-0.230
1.600
2.690
1.535
1.145
0.245
-0.090
-0.105
-0.200
-0.140
-0.175
-0.145
-0.180
-0.150
-0.170
-0.105
-0.085
-0.215
-0.215
-0.120
-0.170
-0.220
-0.210
-0.175
-0.180
-0.185
-0.175
-0.105
-0.160
-0.100
-0.035
0.070
0.040
0.075
0.100
0.060
0.040
0.065
0.020
0.030
0.000
-0.045
0.000
-0.050
-0.085
-0.015
-0.060
-0.105
-0.090
-0.080
-0.070
-0.075
-0.035
-0.080
-0.115
-0.085
-0.105
-0.085
-0.055
-0.070
-0.025
-0.085
-0.090
-0.055
0.010
-0.095
-0.090
-0.040
0.070
0.035
0.055
0.215
0.320
0.150
0.090
0.010
-0.015
-0.060
-0.120
-0.145
-0.055
-0.205
-0.350
-0.700
-0.825
-0.220
1.450
2.745
1.560
1.125
0.340
-0.105
-0.115
-0.205
-0.115
-0.210
-0.195
-0.185
-0.140
-0.130
-0.170
-0.140
-0.115
-0.245
-0.175
-0.125
-0.140
-0.255
-0.200
-0.155
-0.140
-0.180
-0.160
-0.165
-0.025
0.000
0.045
0.130
0.150
0.130
0.070
0.070
0.035
0.020
-0.005
0.000
-0.015
-0.020
-0.070
-0.020
-0.085
-0.095
-0.080
-0.105
-0.075
-0.085
-0.180
-0.135
-0.090
-0.085
-0.145
-0.105
-0.090
-0.060
-0.110
-0.065
-0.120
-0.090
-0.110
-0.050
-0.060
-0.080
-0.045
0.110
0.030
0.070
0.210
0.205
0.165
0.155
0.110
0.000
-0.080
-0.060
-0.135
-0.130
-0.155
-0.355
-0.700
-0.830
-0.230
1.775
2.640
1.540
1.060
0.170
-0.135
-0.105
-0.100
-0.195
-0.150
-0.135
-0.100
-0.195
-0.170
-0.140
-0.140
-0.155
-0.135
-0.195
-0.205
-0.165
-0.200
-0.135
-0.165
-0.190
-0.215
-0.170
-0.140
-0.050
-0.030
0.015
0.050
0.155
0.050
0.045
0.090
0.055
-0.030
-0.005
-0.035
0.000
-0.065
-0.040
-0.055
-0.135
-0.105
-0.070
-0.085
-0.190
-0.155
-0.095
-0.135
-0.180
-0.135
-0.090
-0.070
-0.150
-0.160
-0.170
-0.135
-0.200
-0.160
-0.185
-0.095
-0.180
0.090
0.015
0.045
0.100
0.160
0.120
0.175
-0.035
-0.030
-0.085
-0.035
-0.120
-0.100
-0.150
-0.340
-0.620
-0.940
-0.350
1.625
2.655
1.625
0.955
0.210
0.370
0.330
0.155
-0.025
0.035
0.000
-0.020
-0.285
-0.245
-0.260
-0.155
-0.170
-0.205
-0.215
-0.230
-0.370
-0.215
-0.300
-0.345
-0.330
-0.205
-0.190
-0.015
0.190
0.095
0.085
0.070
0.100
0.110
0.030
-0.010
-0.040
0.105
0.265
0.095
-0.065
-0.010
-0.030
0.070
0.015
-0.055
-0.045
-0.040
-0.185
-0.155
-0.065
-0.065
-0.060
-0.130
-0.165
-0.225
-0.205
-0.320
-0.155
-0.080
-0.085
-0.150
-0.025
0.020
-0.025
-0.025
0.080
0.155
0.310
0.100
0.105
0.075
0.080
-0.220
-0.125
-0.120
-0.065
-0.210
-0.220
-0.635
-0.780
-0.345
0.775
2.740
1.910
1.290
0.465
-0.130
-0.070
-0.180
-0.190
-0.125
-0.150
-0.255
-0.165
-0.155
-0.150
-0.205
-0.145
-0.170
-0.185
-0.180
-0.095
-0.255
-0.250
-0.175
-0.215
-0.200
-0.200
-0.155
-0.015
-0.025
-0.045
0.025
0.090
0.095
0.070
0.035
0.030
0.015
0.020
0.080
-0.075
-0.015
0.180
-0.010
-0.070
-0.005
-0.035
-0.010
-0.115
-0.135
0.000
-0.120
-0.155
-0.085
-0.120
-0.120
-0.115
-0.110
-0.155
-0.165
-0.190
-0.075
-0.185
-0.155
-0.075
-0.090
0.030
0.070
0.210
0.205
0.175
0.135
0.150
0.100
-0.180
-0.150
-0.140
-0.085
-0.085
-0.250
-0.530
-0.635
-0.595
0.000
2.390
2.270
1.105
0.755
0.005
-0.175
-0.290
-0.195
-0.160
-0.095
-0.045
-0.015
-0.075
-0.070
-0.085
-0.200
-0.165
-0.105
-0.185
-0.195
-0.170
-0.185
-0.170
-0.150
-0.160
-0.120
-0.075
-0.105
-0.075
0.045
0.000
0.030
0.050
0.055
0.050
0.025
0.070
0.015
-0.075
-0.080
-0.075
-0.005
-0.070
-0.075
-0.055
-0.025
-0.030
-0.105
-0.120
-0.065
-0.085
-0.095
-0.050
-0.040
-0.050
0.000
-0.015
0.010
-0.025
-0.110
-0.085
-0.040
0.005
0.035
0.040
0.055
0.170
0.125
0.130
0.220
0.210
0.140
0.095
-0.040
-0.100
-0.060
-0.155
-0.140
-0.120
-0.120
-0.595
-0.790
-0.585
0.235
2.505
2.140
1.270
0.695
-0.025
-0.055
-0.180
-0.170
-0.185
-0.115
-0.180
-0.170
-0.150
-0.055
-0.145
-0.125
-0.145
-0.160
-0.105
-0.115
-0.210
-0.155
-0.180
-0.105
-0.125
-0.090
-0.045
0.015
0.040
0.170
0.155
0.095
0.075
0.050
-0.015
-0.110
-0.110
-0.080
-0.015
0.005
-0.030
-0.025
-0.045
-0.125
-0.075
-0.160
-0.150
-0.160
-0.155
-0.160
-0.145
-0.105
-0.145
-0.160
-0.080
-0.075
-0.065
-0.085
-0.050
-0.085
-0.080
-0.105
-0.135
-0.170
-0.095
-0.095
-0.065
-0.030
0.080
0.180
0.160
0.145
0.155
0.080
-0.025
-0.030
-0.065
-0.310
-0.260
-0.050
-0.095
-0.585
-0.760
-0.455
0.525
2.630
1.990
1.245
0.530
-0.070
-0.090
-0.160
-0.150
-0.165
-0.140
-0.210
-0.085
-0.125
-0.090
-0.110
-0.055
-0.205
-0.175
-0.180
-0.195
-0.140
-0.180
-0.190
-0.155
-0.135
-0.145
-0.250
-0.130
-0.070
0.070
0.080
0.105
0.110
0.105
0.085
0.070
0.060
-0.010
0.010
0.020
0.010
-0.035
-0.025
-0.090
-0.090
-0.050
-0.120
-0.100
-0.180
-0.135
-0.140
-0.120
-0.095
-0.045
-0.090
-0.020
0.005
0.025
0.065
0.000
-0.045
0.010
-0.075
-0.095
-0.145
0.060
0.060
0.125
0.150
0.265
0.170
0.145
0.055
0.035
-0.120
-0.080
-0.100
-0.100
-0.140
-0.130
-0.620
-0.835
-0.500
0.425
2.645
2.070
1.295
0.625
-0.150
-0.135
-0.190
-0.185
-0.200
-0.190
-0.175
-0.170
-0.160
-0.165
-0.185
-0.180
-0.190
-0.130
-0.190
-0.095
-0.190
-0.245
-0.160
-0.195
-0.160
-0.160
-0.180
-0.030
-0.025
0.050
0.035
0.135
0.060
0.135
0.100
0.125
-0.005
0.100
0.030
0.120
-0.015
0.020
0.035
-0.040
0.000
-0.005
-0.035
-0.095
-0.110
-0.125
-0.075
-0.125
-0.035
-0.085
-0.075
-0.090
-0.065
-0.070
-0.015
-0.145
-0.020
-0.050
-0.100
-0.150
0.000
0.030
0.075
0.040
0.250
0.280
0.095
-0.070
-0.010
-0.180
0.010
-0.155
-0.145
-0.225
-0.160
-0.440
-0.675
-0.610
-0.110
2.145
2.510
1.575
1.030
0.105
-0.070
-0.045
-0.080
-0.205
-0.165
-0.085
-0.185
-0.160
-0.140
0.005
-0.215
-0.235
-0.190
-0.105
-0.295
-0.310
-0.275
-0.120
-0.225
-0.270
-0.190
-0.015
-0.130
-0.135
-0.005
0.075
0.150
0.065
0.090
0.080
0.060
-0.065
-0.050
-0.025
-0.060
-0.035
-0.045
-0.040
-0.020
-0.070
-0.120
-0.025
-0.135
-0.120
-0.170
-0.140
-0.170
-0.180
-0.205
-0.160
-0.170
-0.140
-0.205
-0.130
-0.135
-0.045
-0.175
-0.045
-0.105
-0.120
-0.075
-0.015
-0.045
0.125
0.265
0.425
0.280
0.235
0.115
-0.020
0.000
-0.010
-0.055
-0.110
-0.055
-0.150
-0.670
-0.835
-0.345
0.805
2.740
1.830
1.335
0.540
-0.090
-0.115
-0.140
-0.160
-0.205
-0.155
-0.190
-0.175
-0.200
-0.130
-0.190
-0.190
-0.165
-0.170
-0.190
-0.180
-0.195
-0.190
-0.220
-0.135
-0.170
-0.175
-0.165
-0.090
0.000
0.030
0.100
0.195
0.075
0.140
0.060
0.060
0.055
0.015
-0.015
-0.005
0.025
-0.040
-0.040
-0.015
0.070
-0.265
-0.235
-0.135
-0.160
-0.140
-0.110
-0.130
-0.065
-0.040
0.000
-0.045
-0.005
0.010
-0.040
-0.030
0.025
-0.020
-0.085
-0.015
-0.075
-0.085
-0.040
-0.010
0.080
0.080
0.185
0.215
0.155
0.095
-0.020
-0.095
-0.105
-0.105
-0.200
-0.175
-0.175
-0.350
-0.740
-0.815
-0.195
1.840
2.600
1.455
0.990
0.180
-0.175
-0.120
-0.180
-0.155
-0.190
-0.140
-0.125
-0.120
-0.115
-0.060
-0.150
-0.215
-0.170
-0.145
-0.150
-0.190
-0.185
-0.220
-0.275
-0.205
-0.175
-0.140
-0.070
-0.015
-0.015
0.125
0.165
0.095
0.105
0.100
0.050
-0.015
0.005
0.025
-0.080
-0.030
0.015
-0.040
-0.095
-0.085
-0.075
-0.045
-0.145
-0.145
-0.095
-0.125
-0.120
-0.110
-0.120
-0.170
-0.170
-0.070
-0.120
-0.115
-0.065
-0.045
-0.110
0.000
-0.175
-0.090
-0.100
-0.030
0.040
0.100
0.275
0.265
0.255
0.140
0.090
0.050
-0.125
-0.095
-0.130
-0.100
0.045
-0.090
-0.600
-0.775
-0.560
0.240
2.560
2.270
1.450
0.855
-0.125
-0.120
-0.090
-0.130
-0.140
-0.140
-0.140
-0.050
-0.145
-0.180
-0.130
-0.195
-0.135
-0.170
-0.135
-0.165
-0.130
-0.065
-0.240
-0.225
-0.150
-0.210
-0.135
-0.115
0.035
0.180
0.180
0.200
0.165
0.185
0.075
0.050
0.105
0.140
0.020
-0.115
-0.255
-0.405
-0.875
-0.985
-0.735
-0.275
-0.140
0.110
-0.040
-0.615
-0.745
-0.455
-0.150
-0.140
-0.070
0.020
0.115
0.115
0.095
0.075
0.130
0.190
0.085
0.150
0.245
0.290
0.340
0.345
0.355
0.420
0.375
0.345
0.215
0.220
0.135
0.080
0.115
0.090
0.075
0.010
0.040
0.000
0.020
0.005
-0.010
0.015
0.040
-0.050
-0.030
-0.025
-0.025
-0.015
0.000
0.010
0.000
-0.060
0.010
-0.065
-0.095
-0.080
-0.015
-0.060
-0.020
-0.090
-0.055
-0.035
-0.070
0.000
-0.005
0.000
-0.090
-0.025
0.005
-0.020
-0.015
0.040
0.040
0.050
-0.035
-0.055
-0.050
-0.060
-0.035
-0.025
-0.030
0.010
-0.080
-0.090
-0.110
-0.060
-0.095
-0.050
-0.015
0.090
-0.135
-0.050
-0.070
-0.065
-0.050
-0.070
-0.050
0.015
0.025
-0.025
-0.090
-0.075
-0.055
-0.050
-0.075
-0.040
-0.070
-0.155
-0.055
0.010
0.030
0.155
0.240
0.260
0.170
0.090
0.000
-0.115
-0.140
-0.085
-0.170
-0.130
-0.575
-0.700
-0.520
0.525
2.615
2.100
1.280
0.665
-0.010
-0.025
-0.160
-0.115
-0.185
-0.090
-0.115
-0.090
-0.085
-0.145
-0.180
-0.160
-0.190
-0.220
-0.170
-0.225
-0.155
-0.120
-0.095
-0.145
-0.100
-0.050
0.005
-0.090
-0.095
0.090
0.185
0.230
0.275
0.015
0.055
0.065
0.045
0.010
0.010
0.035
0.095
0.005
0.010
0.020
-0.090
-0.135
-0.035
-0.270
-0.225
-0.305
-0.290
-0.440
-0.235
-0.325
0.010
-0.165
-0.015
-0.140
0.080
-0.230
-0.175
-0.420
-0.125
-0.005
-0.065
0.020
-0.040
0.190
0.080
0.300
0.150
0.300
0.105
0.065
-0.010
-0.050
-0.085
-0.075
-0.095
-0.130
-0.385
-0.675
-0.820
-0.165
1.745
2.585
1.510
0.980
0.200
-0.155
-0.125
-0.260
-0.095
-0.005
-0.215
-0.070
-0.125
-0.265
-0.260
-0.150
-0.245
-0.090
-0.260
-0.150
-0.260
-0.225
-0.100
-0.205
-0.130
-0.185
-0.080
-0.130
-0.075
-0.030
0.040
0.130
0.100
0.035
0.135
0.015
0.005
-0.035
-0.005
-0.025
-0.035
-0.020
-0.050
-0.080
-0.060
-0.095
-0.030
-0.100
-0.140
-0.060
-0.135
-0.120
-0.080
-0.120
-0.070
-0.065
-0.070
-0.045
-0.065
-0.155
-0.065
-0.095
-0.040
-0.075
-0.075
-0.130
0.020
0.015
0.055
0.220
0.200
0.165
0.135
0.070
-0.100
-0.105
-0.080
-0.135
-0.160
-0.160
-0.210
-0.730
-0.910
-0.350
1.120
2.765
1.805
1.170
0.270
-0.115
-0.075
-0.225
-0.170
-0.220
-0.145
-0.155
-0.150
-0.205
-0.105
-0.155
-0.195
-0.195
-0.175
-0.175
-0.175
-0.230
-0.190
-0.170
-0.160
-0.220
-0.190
-0.150
-0.065
0.020
0.030
0.055
0.075
0.140
0.080
0.025
0.025
0.030
-0.015
-0.020
0.055
0.005
-0.035
-0.110
-0.090
-0.065
-0.100
-0.110
-0.085
-0.175
-0.110
-0.110
-0.090
-0.095
-0.155
-0.125
-0.065
-0.110
-0.085
-0.065
-0.030
-0.050
-0.075
-0.130
-0.065
0.035
0.095
0.160
0.235
0.185
0.140
0.095
0.110
-0.165
-0.125
-0.140
-0.075
-0.125
-0.175
-0.600
-0.815
-0.500
0.320
2.675
2.165
1.410
0.625
-0.085
-0.085
-0.200
-0.085
-0.210
-0.165
-0.185
-0.185
-0.205
-0.140
-0.150
-0.095
-0.250
-0.135
-0.170
-0.215
-0.230
-0.190
-0.165
-0.185
-0.160
-0.205
-0.165
-0.135
-0.080
0.040
0.060
0.025
0.230
0.010
0.015
0.040
0.030
0.000
-0.010
0.030
0.005
-0.005
-0.080
-0.090
-0.060
-0.020
-0.130
-0.120
-0.130
-0.080
-0.050
-0.090
-0.135
-0.055
-0.120
-0.100
-0.100
-0.060
-0.050
0.000
-0.110
-0.090
-0.090
-0.060
0.040
0.055
0.140
0.260
0.345
0.075
0.060
-0.015
-0.105
-0.065
-0.070
-0.090
-0.075
-0.150
-0.530
-0.745
-0.665
0.115
2.395
2.350
1.405
0.885
0.055
-0.080
-0.185
-0.095
-0.155
-0.185
-0.140
-0.140
-0.170
-0.110
-0.145
-0.180
-0.180
-0.190
-0.125
-0.195
-0.210
-0.150
-0.210
-0.225
-0.205
-0.175
-0.120
-0.120
0.000
0.075
-0.005
0.070
0.100
0.175
0.025
0.000
0.055
0.065
-0.025
-0.055
-0.040
0.050
-0.060
-0.110
-0.070
-0.085
-0.090
-0.130
-0.040
-0.165
-0.170
-0.020
-0.130
-0.145
-0.140
-0.060
-0.120
-0.110
-0.025
-0.030
-0.160
-0.105
0.000
-0.080
-0.135
-0.015
0.125
0.070
0.105
0.260
0.230
0.140
0.020
-0.075
-0.125
-0.065
-0.105
-0.100
-0.145
-0.140
-0.655
-0.860
-0.420
0.695
2.670
1.895
1.310
0.595
-0.095
-0.040
-0.175
-0.185
-0.215
-0.170
-0.195
-0.150
-0.110
-0.120
-0.185
-0.120
-0.160
-0.215
-0.200
-0.160
-0.205
-0.120
-0.160
-0.225
-0.195
-0.115
-0.120
-0.095
0.050
0.040
0.060
0.145
0.150
0.095
0.060
0.110
0.060
-0.005
-0.005
-0.020
-0.040
-0.020
-0.020
-0.050
-0.090
-0.060
-0.105
-0.075
-0.125
-0.110
-0.115
-0.125
-0.095
-0.095
-0.070
-0.100
-0.060
-0.120
-0.145
-0.095
-0.030
-0.085
-0.090
-0.010
-0.095
-0.115
-0.060
0.035
0.070
0.120
0.270
0.245
0.135
0.095
0.015
-0.035
-0.050
-0.115
-0.170
-0.135
-0.135
-0.435
-0.690
-0.770
-0.060
2.060
2.510
1.485
0.950
0.100
-0.145
-0.125
-0.115
-0.190
-0.195
-0.145
-0.185
-0.180
-0.200
-0.110
-0.155
-0.175
-0.160
-0.190
-0.190
-0.250
-0.205
-0.190
-0.220
-0.155
-0.135
-0.180
-0.015
-0.065
-0.040
0.050
0.115
0.105
0.085
0.070
0.085
0.085
-0.040
-0.035
-0.070
-0.025
-0.065
-0.070
-0.050
-0.065
-0.050
-0.070
-0.145
-0.150
-0.100
-0.160
-0.125
-0.155
-0.135
-0.075
-0.095
-0.120
-0.060
-0.075
-0.115
-0.135
-0.095
-0.095
-0.050
-0.040
-0.075
0.030
0.065
0.125
0.300
0.180
0.145
0.075
-0.015
-0.130
-0.070
-0.145
-0.120
-0.110
-0.185
-0.610
-0.805
-0.570
0.445
2.655
2.070
1.430
0.585
-0.125
-0.085
-0.220
-0.130
-0.160
-0.135
-0.200
-0.190
-0.140
-0.125
-0.180
-0.145
-0.200
-0.170
-0.235
-0.165
-0.185
-0.200
-0.245
-0.160
-0.195
-0.180
-0.155
-0.050
0.015
-0.040
0.085
0.050
0.035
0.125
0.105
0.020
-0.080
-0.015
-0.005
0.000
-0.030
-0.050
-0.050
-0.075
-0.075
-0.065
-0.110
-0.135
-0.095
-0.100
-0.165
-0.105
-0.060
-0.100
-0.160
-0.110
0.000
-0.130
-0.125
-0.015
-0.120
-0.115
-0.105
-0.010
-0.085
-0.050
0.000
0.140
0.110
0.210
0.170
0.185
0.040
-0.060
-0.095
-0.070
-0.170
-0.110
-0.125
-0.200
-0.690
-0.915
-0.260
1.000
2.730
1.805
1.335
0.410
-0.150
-0.095
-0.205
-0.130
-0.150
-0.150
-0.160
-0.105
-0.180
-0.175
-0.200
-0.145
-0.200
-0.140
-0.135
-0.170
-0.225
-0.105
-0.270
-0.205
-0.205
-0.095
-0.040
-0.105
-0.050
0.085
0.160
0.000
0.030
0.085
0.145
0.005
-0.025
0.000
0.030
0.015
-0.065
-0.075
-0.005
0.020
-0.140
-0.135
-0.120
-0.060
-0.105
-0.125
-0.120
-0.020
-0.165
-0.120
-0.105
-0.060
-0.110
-0.105
-0.030
-0.095
-0.030
-0.155
-0.150
-0.045
-0.035
-0.045
0.045
0.090
0.170
0.200
0.195
0.185
0.020
-0.080
-0.095
-0.025
-0.130
-0.090
-0.180
-0.280
-0.660
-0.825
-0.265
1.340
2.710
1.630
1.195
0.440
-0.160
-0.095
-0.135
-0.175
-0.170
-0.170
-0.140
-0.110
-0.195
-0.115
-0.160
-0.155
-0.210
-0.150
-0.200
-0.175
-0.145
-0.180
-0.210
-0.180
-0.155
-0.120
-0.135
-0.005
-0.050
0.025
0.145
0.145
0.085
0.075
0.140
0.010
0.030
-0.030
-0.055
0.005
0.000
-0.060
-0.075
-0.025
-0.060
-0.115
-0.085
-0.120
-0.130
-0.090
-0.095
-0.060
-0.125
-0.090
-0.020
-0.165
-0.100
-0.105
-0.065
-0.085
-0.085
-0.090
-0.065
-0.085
-0.070
0.005
0.000
0.005
0.070
0.235
0.260
0.150
0.120
0.040
0.050
-0.130
-0.100
-0.085
-0.140
-0.170
-0.220
-0.585
-0.805
-0.375
1.030
2.705
1.685
1.185
0.515
-0.080
-0.040
-0.205
-0.135
-0.140
-0.195
-0.195
-0.145
-0.140
-0.090
-0.210
-0.175
-0.180
-0.175
-0.105
-0.200
-0.235
-0.160
-0.210
-0.190
-0.165
-0.145
-0.130
-0.040
0.020
0.035
0.085
0.195
0.065
0.075
0.115
0.080
-0.035
-0.015
0.040
0.020
-0.065
-0.050
-0.020
-0.085
-0.115
-0.095
-0.075
-0.110
-0.140
-0.120
0.020
-0.150
-0.160
-0.110
-0.075
-0.115
-0.100
-0.065
-0.055
-0.085
-0.055
-0.070
-0.015
-0.060
-0.085
-0.110
-0.060
0.085
0.055
0.120
0.265
0.240
0.185
0.125
-0.035
-0.050
0.010
-0.145
-0.080
-0.135
-0.155
-0.525
-0.700
-0.650
0.135
2.430
2.370
1.420
0.835
0.085
-0.120
-0.170
-0.115
-0.075
-0.170
-0.150
-0.070
-0.125
-0.135
-0.170
-0.100
-0.135
-0.165
-0.130
-0.125
-0.185
-0.170
-0.180
-0.140
-0.195
-0.130
-0.005
-0.095
-0.045
0.080
0.145
0.125
0.115
0.110
0.060
0.125
0.075
0.040
0.115
-0.005
-0.165
-0.335
-0.580
-0.915
-0.795
-0.585
-0.245
-0.070
0.125
-0.025
-0.640
-0.820
-0.405
-0.125
-0.115
0.030
0.075
0.115
0.135
0.135
0.115
0.190
0.110
0.180
0.200
0.265
0.260
0.360
0.360
0.415
0.465
0.330
0.355
0.240
0.200
0.090
0.035
0.055
0.010
-0.010
-0.015
-0.010
-0.040
0.030
0.015
-0.060
-0.020
-0.015
0.000
-0.030
-0.040
-0.050
-0.075
-0.015
-0.025
-0.050
-0.070
-0.010
0.010
-0.015
-0.010
-0.070
-0.035
-0.045
-0.075
-0.020
-0.010
-0.025
0.000
-0.070
-0.040
-0.005
-0.020
-0.080
-0.050
-0.035
-0.045
-0.010
0.030
-0.020
-0.095
0.030
-0.060
-0.095
-0.075
-0.045
-0.035
-0.035
0.025
-0.005
-0.065
-0.085
-0.115
-0.110
-0.070
-0.040
-0.060
-0.075
-0.025
-0.070
-0.130
-0.115
-0.090
-0.050
-0.080
-0.075
-0.115
-0.045
-0.035
-0.070
-0.065
0.080
0.085
0.245
0.235
0.145
0.045
0.055
-0.115
-0.105
-0.085
-0.140
-0.180
-0.360
-0.665
-0.795
-0.110
1.595
2.585
1.540
1.060
0.195
-0.075
-0.190
-0.260
-0.170
-0.240
-0.190
-0.205
-0.125
-0.160
-0.230
-0.220
-0.145
-0.175
-0.195
-0.210
-0.185
-0.190
-0.170
-0.195
-0.185
-0.135
-0.115
-0.070
-0.025
0.025
0.115
0.195
0.265
0.210
0.230
0.225
0.185
0.115
0.080
0.025
0.025
0.005
-0.020
-0.035
-0.070
-0.065
-0.155
-0.155
-0.185
-0.185
-0.180
-0.170
-0.080
-0.200
-0.185
-0.175
-0.100
-0.105
-0.185
-0.120
-0.070
-0.145
0.000
-0.110
-0.055
0.000
0.090
0.175
0.220
0.225
0.145
-0.010
-0.080
-0.120
-0.030
-0.110
-0.165
-0.190
-0.255
-0.675
-0.775
-0.300
1.305
2.765
1.660
1.220
0.365
-0.100
-0.120
-0.195
-0.180
-0.235
-0.115
-0.195
-0.165
-0.190
-0.125
-0.215
-0.180
-0.135
-0.155
-0.165
-0.255
-0.265
-0.210
-0.145
-0.145
-0.155
-0.145
-0.205
-0.065
-0.030
0.040
0.095
0.135
0.080
0.080
0.080
0.025
-0.025
-0.045
-0.060
-0.055
-0.015
-0.080
-0.095
-0.090
-0.095
-0.145
-0.140
-0.065
-0.080
-0.155
-0.075
-0.125
-0.075
-0.125
-0.095
-0.110
-0.085
-0.060
-0.080
-0.045
-0.075
-0.130
-0.020
0.085
0.080
0.185
0.235
0.190
0.165
0.045
-0.060
-0.100
0.000
-0.190
-0.135
-0.085
-0.210
-0.735
-0.875
-0.235
1.380
2.715
1.645
1.225
0.375
-0.180
-0.090
-0.165
-0.170
-0.195
-0.180
-0.205
-0.155
-0.205
-0.165
-0.165
-0.070
-0.145
-0.205
-0.205
-0.210
-0.210
-0.205
-0.115
-0.140
-0.195
-0.110
-0.085
-0.055
0.015
0.080
0.180
0.105
0.105
0.125
0.025
0.010
0.045
0.020
-0.055
-0.005
-0.040
0.000
-0.030
-0.120
-0.125
-0.165
-0.125
-0.135
-0.105
-0.155
-0.140
-0.100
-0.090
-0.145
-0.080
-0.110
-0.090
-0.020
-0.090
-0.095
-0.020
0.085
0.090
0.160
0.265
0.195
0.155
-0.020
-0.065
-0.075
-0.095
-0.085
-0.035
-0.220
-0.390
-0.715
-0.875
-0.235
1.820
2.635
1.545
1.125
0.100
-0.125
-0.145
-0.210
-0.165
-0.210
-0.195
-0.180
-0.165
-0.210
-0.120
-0.175
-0.225
-0.190
-0.185
-0.220
-0.165
-0.170
-0.180
-0.225
-0.235
-0.135
-0.150
-0.130
-0.065
0.020
0.000
0.030
0.080
0.065
0.065
0.065
0.060
-0.065
0.005
-0.035
-0.010
-0.100
-0.030
-0.085
-0.065
-0.020
-0.145
-0.125
-0.145
-0.135
-0.115
-0.095
-0.110
-0.095
-0.020
-0.160
-0.055
-0.095
-0.040
-0.080
-0.025
0.060
0.135
0.195
0.200
0.205
0.145
0.025
0.000
-0.105
-0.090
-0.105
-0.135
-0.180
-0.220
-0.600
-0.840
-0.400
1.070
2.710
1.645
1.145
0.415
-0.095
-0.110
-0.185
-0.145
-0.115
-0.130
-0.225
-0.200
-0.165
-0.120
-0.220
-0.120
-0.195
-0.155
-0.235
-0.200
-0.195
-0.175
-0.155
-0.200
-0.205
-0.125
-0.095
-0.075
-0.025
0.080
0.090
0.135
0.090
0.050
0.120
0.020
0.000
0.010
-0.010
-0.055
-0.045
-0.100
-0.065
-0.005
-0.120
-0.120
-0.120
-0.135
-0.135
-0.050
-0.060
-0.180
-0.140
-0.135
-0.075
-0.100
-0.065
-0.075
-0.005
0.000
0.005
0.055
0.140
0.215
0.250
0.160
0.155
0.015
-0.030
-0.060
-0.100
-0.155
-0.095
-0.115
-0.365
-0.720
-0.830
-0.225
1.640
2.730
1.460
1.010
0.250
-0.120
-0.110
-0.180
-0.120
-0.160
-0.130
-0.090
-0.190
-0.205
-0.160
-0.160
-0.140
-0.190
-0.190
-0.175
-0.165
-0.205
-0.195
-0.140
-0.225
-0.240
-0.135
-0.105
-0.005
-0.005
0.050
0.095
0.050
0.070
0.125
0.015
0.005
0.000
0.030
0.020
-0.080
-0.080
-0.065
-0.005
0.000
-0.175
-0.145
-0.080
-0.125
-0.155
-0.135
-0.005
-0.120
-0.155
-0.130
-0.070
-0.100
-0.095
-0.115
0.005
0.050
0.050
0.180
0.290
0.150
0.165
0.050
-0.030
-0.080
-0.050
-0.170
-0.070
-0.090
-0.120
-0.590
-0.880
-0.590
0.325
2.655
2.165
1.400
0.655
-0.130
-0.115
-0.115
-0.190
-0.175
-0.125
-0.180
-0.125
-0.130
-0.080
-0.190
-0.180
-0.200
-0.140
-0.185
-0.150
-0.170
-0.200
-0.170
-0.205
-0.180
-0.140
-0.140
-0.045
-0.025
-0.005
0.065
0.070
0.015
0.040
0.025
0.035
0.035
-0.020
0.000
0.010
0.015
-0.020
-0.125
-0.130
-0.065
-0.095
-0.165
-0.145
-0.110
-0.115
-0.095
-0.055
-0.080
-0.055
-0.090
-0.180
-0.110
-0.090
-0.055
-0.070
-0.035
0.100
0.120
0.160
0.270
0.210
0.110
-0.015
-0.075
-0.105
-0.030
-0.135
-0.110
-0.180
-0.255
-0.700
-0.900
-0.265
1.595
2.715
1.610
1.180
0.210
-0.205
-0.125
-0.130
-0.170
-0.220
-0.145
-0.125
-0.190
-0.180
-0.115
-0.135
-0.155
-0.180
-0.170
-0.180
-0.180
-0.185
-0.165
-0.265
-0.195
-0.165
-0.130
-0.130
-0.070
0.035
0.005
0.100
0.150
0.070
0.040
0.035
0.025
-0.005
-0.015
0.000
-0.010
-0.040
-0.025
-0.015
-0.080
-0.115
-0.060
-0.140
-0.135
-0.135
-0.090
-0.130
-0.100
-0.085
-0.095
-0.090
-0.065
-0.095
-0.105
-0.105
-0.035
-0.005
0.010
0.055
0.095
0.190
0.205
0.130
0.115
0.060
-0.080
-0.120
-0.035
-0.125
-0.155
-0.165
-0.360
-0.725
-0.850
-0.195
1.770
2.605
1.480
1.050
0.215
-0.135
-0.115
-0.180
-0.185
-0.090
-0.105
-0.270
-0.200
-0.110
-0.150
-0.220
-0.170
-0.115
-0.155
-0.240
-0.180
-0.105
-0.185
-0.220
-0.210
-0.175
-0.105
-0.055
-0.005
0.000
0.130
0.125
0.070
0.090
0.075
0.055
0.010
0.030
0.050
-0.075
-0.025
-0.035
-0.115
-0.075
-0.115
-0.110
-0.115
-0.130
-0.060
-0.050
-0.165
-0.175
-0.145
-0.100
-0.080
-0.060
-0.140
-0.065
-0.065
-0.090
-0.085
-0.035
-0.130
-0.005
0.075
0.110
0.150
0.260
0.240
0.135
0.030
0.020
-0.120
-0.125
-0.095
-0.090
-0.155
-0.240
-0.610
-0.795
-0.490
0.840
2.710
1.775
1.150
0.455
-0.070
-0.090
-0.190
-0.100
-0.230
-0.175
-0.160
-0.145
-0.190
-0.110
-0.065
-0.240
-0.210
-0.185
-0.175
-0.170
-0.165
-0.095
-0.265
-0.210
-0.125
-0.075
-0.120
-0.085
0.010
0.050
0.120
0.165
0.125
0.040
0.020
0.015
0.020
0.050
0.000
-0.090
-0.060
-0.030
-0.080
-0.085
-0.095
-0.060
-0.105
-0.100
-0.160
-0.165
-0.110
-0.025
-0.170
-0.105
-0.040
-0.085
-0.125
-0.095
-0.060
-0.135
-0.115
-0.040
-0.030
-0.070
0.020
0.155
0.180
0.210
0.215
0.260
0.020
-0.115
-0.135
-0.035
-0.125
-0.140
-0.155
-0.120
-0.605
-0.815
-0.505
0.320
2.470
2.100
1.340
0.665
-0.070
-0.120
-0.135
-0.135
-0.175
-0.100
-0.220
-0.175
-0.135
-0.165
-0.175
-0.150
-0.140
-0.185
-0.220
-0.190
-0.175
-0.185
-0.200
-0.180
-0.190
-0.095
-0.120
-0.080
0.015
0.010
0.075
0.100
0.120
0.065
0.050
0.020
0.005
0.000
-0.025
-0.035
-0.035
-0.030
-0.065
-0.030
-0.120
-0.125
-0.125
-0.135
-0.135
-0.145
-0.120
-0.110
-0.075
-0.045
-0.180
-0.090
-0.055
-0.085
-0.105
-0.050
-0.145
-0.055
-0.045
0.000
0.075
0.065
0.255
0.255
0.130
0.115
0.045
-0.085
-0.090
-0.055
-0.155
-0.135
-0.135
-0.350
-0.720
-0.865
-0.315
1.710
2.670
1.565
1.200
0.145
-0.220
-0.150
-0.175
-0.155
-0.160
-0.130
-0.205
-0.175
-0.150
-0.070
-0.185
-0.190
-0.190
-0.170
-0.125
-0.160
-0.270
-0.185
-0.190
-0.175
-0.110
-0.120
-0.100
-0.055
0.005
0.070
0.145
0.080
0.075
0.045
0.020
0.020
0.020
-0.020
-0.020
0.055
-0.025
-0.045
-0.090
-0.055
-0.120
-0.095
-0.155
-0.125
-0.085
-0.085
-0.145
-0.115
-0.120
-0.115
-0.075
-0.120
-0.095
-0.040
-0.045
-0.105
-0.075
-0.095
-0.140
-0.010
0.055
0.100
0.170
0.310
0.195
0.105
0.030
0.060
-0.105
-0.165
-0.160
-0.090
-0.115
-0.300
-0.655
-0.795
-0.425
1.195
2.765
1.660
1.185
0.345
-0.105
-0.040
-0.180
-0.165
-0.190
-0.165
-0.200
-0.160
-0.155
-0.115
-0.155
-0.125
-0.175
-0.200
-0.200
-0.180
-0.190
-0.150
-0.220
-0.205
-0.155
-0.100
-0.110
-0.060
0.030
0.075
0.085
0.110
0.120
0.065
0.070
0.015
0.030
-0.025
-0.010
0.000
-0.020
0.010
-0.090
-0.080
-0.090
-0.100
-0.110
-0.095
-0.175
-0.120
-0.145
-0.105
-0.065
-0.125
-0.065
-0.075
-0.060
-0.045
-0.115
-0.075
-0.100
-0.065
-0.100
-0.085
-0.060
0.030
0.100
0.085
0.195
0.215
0.175
0.150
0.015
-0.060
-0.105
-0.140
-0.145
-0.050
-0.175
-0.405
-0.695
-0.825
-0.165
1.830
2.565
1.420
1.020
0.225
-0.090
-0.120
-0.210
-0.190
-0.180
-0.150
-0.180
-0.160
-0.110
-0.175
-0.165
-0.175
-0.145
-0.145
-0.215
-0.180
-0.215
-0.150
-0.170
-0.140
-0.205
-0.135
-0.105
-0.015
0.115
0.110
0.085
0.105
0.125
0.085
0.080
0.040
0.015
0.005
-0.035
-0.045
-0.035
-0.010
-0.060
-0.070
-0.090
-0.115
-0.075
-0.095
-0.110
-0.135
-0.125
-0.085
-0.125
-0.055
-0.115
-0.125
-0.055
-0.065
-0.110
-0.060
-0.015
-0.090
-0.125
0.000
-0.120
0.010
0.080
0.095
0.150
0.275
0.200
0.135
0.070
-0.030
-0.060
-0.040
-0.210
-0.140
-0.115
-0.195
-0.685
-0.840
-0.345
1.080
2.720
1.700
1.195
0.365
-0.125
-0.025
-0.170
-0.150
-0.180
-0.165
-0.150
-0.135
-0.185
-0.150
-0.165
-0.070
-0.185
-0.220
-0.095
-0.185
-0.275
-0.195
-0.175
-0.185
-0.105
-0.175
